Time,Current,Terminal Voltage,Ambient Temperature
17291.271016546078,-2.5,4.192871209326064,298.15
17291.279349879413,-2.5,4.196422862714862,298.15
17291.287683212744,-2.5,4.199354138706688,298.15
17291.28921023549,-2.5,4.19998999999948,298.15
17291.297543568824,-2.4277608316426216,4.199999999999999,298.15
17291.305876902155,-2.3880218152481083,4.200000000000001,298.15
17291.31421023549,-2.3352674156891338,4.2,298.15
17291.322543568822,-2.2952230846295536,4.200000000000001,298.15
17291.330876902157,-2.268559216447409,4.199999999999999,298.15
17291.33921023549,-2.2295722290280056,4.200000000000001,298.15
17291.347543568823,-2.1956308280884027,4.199999999999999,298.15
17291.355876902155,-2.167693668367671,4.199999999999999,298.15
17291.36421023549,-2.1410878075328563,4.199999999999999,298.15
17291.37254356882,-2.113256067197771,4.199999999999998,298.15
17291.380876902156,-2.092368275888906,4.199999999999999,298.15
17291.389210235488,-2.06842787118024,4.200000000000001,298.15
17291.397543568823,-2.0520629324329103,4.2,298.15
17291.405876902154,-2.0341565288458257,4.199999999999999,298.15
17291.41421023549,-2.010335596301324,4.200000000000001,298.15
17291.422543568824,-1.9943406397235284,4.199999999999999,298.15
17291.430876902155,-1.9814170601014007,4.200000000000001,298.15
17291.43921023549,-1.9606619011698592,4.199999999999999,298.15
17291.447543568822,-1.942310068903098,4.199999999999999,298.15
17291.455876902157,-1.928837656573689,4.200000000000001,298.15
17291.46421023549,-1.910412934707154,4.199999999999998,298.15
17291.472543568823,-1.888632463003717,4.199999999999999,298.15
17291.480876902155,-1.8720097532092104,4.199999999999999,298.15
17291.48921023549,-1.8574440517350712,4.199999999999999,298.15
17291.49754356882,-1.8362187187102623,4.1999999999999975,298.15
17291.505876902156,-1.8114936515676725,4.200000000000001,298.15
17291.514210235488,-1.7937756349146692,4.199999999999999,298.15
17291.522543568823,-1.771334965909662,4.200000000000001,298.15
17291.530876902154,-1.7472769439920277,4.199999999999999,298.15
17291.53921023549,-1.7234199871068872,4.199999999999999,298.15
17291.547543568824,-1.6975652252848603,4.199999999999999,298.15
17291.555876902155,-1.6711501220182898,4.199999999999999,298.15
17291.56421023549,-1.643961830466124,4.199999999999999,298.15
17291.572543568822,-1.616760047249652,4.199999999999999,298.15
17291.580876902157,-1.5888069405234526,4.2,298.15
17291.58921023549,-1.559008565680085,4.199999999999999,298.15
17291.597543568823,-1.5271308442391147,4.199999999999999,298.15
17291.605876902155,-1.4967077224753278,4.199999999999999,298.15
17291.61421023549,-1.4683903312944435,4.199999999999999,298.15
17291.62254356882,-1.439554160969697,4.199999999999999,298.15
17291.630876902156,-1.4098165006465342,4.199999999999998,298.15
17291.639210235488,-1.37962999979808,4.199999999999999,298.15
17291.647543568823,-1.3481678431893975,4.2,298.15
17291.655876902154,-1.3167801358151978,4.199999999999999,298.15
17291.66421023549,-1.286616182510496,4.199999999999999,298.15
17291.672543568824,-1.2569789734272745,4.199999999999999,298.15
17291.680876902155,-1.228110473372077,4.199999999999999,298.15
17291.68921023549,-1.201308187370549,4.200000000000001,298.15
17291.697543568822,-1.1759913144045928,4.2,298.15
17291.705876902157,-1.1498262220621158,4.2,298.15
17291.71421023549,-1.1212550797238403,4.199999999999998,298.15
17291.722543568823,-1.0914951512941349,4.199999999999999,298.15
17291.730876902155,-1.0630652360611224,4.199999999999999,298.15
17291.73921023549,-1.036899336347478,4.199999999999999,298.15
17291.74754356882,-1.0125241607736952,4.199999999999999,298.15
17291.755876902156,-0.9889861571222904,4.200000000000001,298.15
17291.764210235488,-0.965265283126434,4.2,298.15
17291.772543568823,-0.940896724723714,4.200000000000001,298.15
17291.780876902154,-0.9166850361538804,4.199999999999998,298.15
17291.78921023549,-0.8931343569195492,4.200000000000001,298.15
17291.797543568824,-0.8706378789629016,4.2,298.15
17291.805876902155,-0.8492362551998212,4.2,298.15
17291.81421023549,-0.8288189767890491,4.199999999999999,298.15
17291.822543568822,-0.8090146309204993,4.200000000000001,298.15
17291.830876902157,-0.7893671053708894,4.200000000000001,298.15
17291.83921023549,-0.7695039432662947,4.199999999999999,298.15
17291.847543568823,-0.7496335503674223,4.199999999999999,298.15
17291.855876902155,-0.7304844789024768,4.2,298.15
17291.86421023549,-0.7124113779075402,4.2,298.15
17291.87254356882,-0.695192034793173,4.2,298.15
17291.880876902156,-0.6782267567692152,4.199999999999999,298.15
17291.889210235488,-0.6611527112488265,4.200000000000001,298.15
17291.897543568823,-0.6440794390402289,4.200000000000001,298.15
17291.905876902154,-0.6274480031873403,4.199999999999999,298.15
17291.91421023549,-0.6115219560401055,4.199999999999999,298.15
17291.922543568824,-0.5962705654179514,4.199999999999999,298.15
17291.930876902155,-0.5815413157265082,4.200000000000001,298.15
17291.93921023549,-0.5672055217275006,4.1999999999999975,298.15
17291.947543568822,-0.5532026493747298,4.200000000000001,298.15
17291.955876902157,-0.5395373589062753,4.2,298.15
17291.96421023549,-0.5263338597650975,4.199999999999999,298.15
17291.972543568823,-0.5136660920468186,4.199999999999999,298.15
17291.980876902155,-0.5014435553356232,4.199999999999999,298.15
17291.98921023549,-0.4895390067016309,4.1999999999999975,298.15
17291.99754356882,-0.4777493415589098,4.200000000000001,298.15
17292.005876902156,-0.4659304119293698,4.2,298.15
17292.014210235488,-0.4541844261475044,4.199999999999999,298.15
17292.022543568823,-0.442569910270817,4.200000000000001,298.15
17292.030876902154,-0.4311375790413114,4.199999999999999,298.15
17292.03921023549,-0.4200455136019844,4.200000000000001,298.15
17292.047543568824,-0.4094325951957494,4.199999999999999,298.15
17292.055876902155,-0.399309740479365,4.199999999999999,298.15
17292.06421023549,-0.3896428986303969,4.2,298.15
17292.072543568822,-0.3803870004546691,4.199999999999998,298.15
17292.080876902157,-0.371449007802157,4.200000000000001,298.15
17292.08921023549,-0.3627456828292447,4.2,298.15
17292.097543568823,-0.3542206891791862,4.199999999999999,298.15
17292.105876902155,-0.3458554016368098,4.199999999999999,298.15
17292.11421023549,-0.3376130853801293,4.199999999999994,298.15
17292.12254356882,-0.3294512309162994,4.200000000000001,298.15
17292.130876902156,-0.3213412452131675,4.2,298.15
17292.139210235488,-0.3132651202112471,4.200000000000001,298.15
17292.147543568823,-0.305287886928965,4.199999999999999,298.15
17292.155876902154,-0.2974643959809985,4.199999999999999,298.15
17292.16421023549,-0.2898316226990104,4.200000000000001,298.15
17292.172543568824,-0.282417232151148,4.2,298.15
17292.180876902155,-0.2752497343745254,4.199999999999999,298.15
17292.18921023549,-0.2683804542245602,4.2,298.15
17292.197543568822,-0.2618196008225911,4.2,298.15
17292.205876902157,-0.2555374598931111,4.199999999999999,298.15
17292.21421023549,-0.2494965966341328,4.200000000000001,298.15
17292.222543568823,-0.2436653260882696,4.1999999999999975,298.15
17292.230876902155,-0.2379963935890708,4.2,298.15
17292.23921023549,-0.2324571642498333,4.199999999999999,298.15
17292.24754356882,-0.2270034612932222,4.200000000000001,298.15
17292.255876902156,-0.2215902243312615,4.2,298.15
17292.264210235488,-0.2162025124301214,4.2,298.15
17292.272543568823,-0.2108578676415551,4.200000000000002,298.15
17292.280876902154,-0.20559135200162,4.199999999999998,298.15
17292.28921023549,-0.200431262441705,4.199999999999999,298.15
17292.297543568824,-0.1953820437231988,4.199999999999999,298.15
17292.305876902155,-0.1904457258635951,4.199999999999999,298.15
17292.31421023549,-0.1856353144299398,4.199999999999999,298.15
17292.322543568822,-0.1809627897622225,4.2,298.15
17292.330876902157,-0.1764283759201673,4.2,298.15
17292.33921023549,-0.1720254517404201,4.199999999999999,298.15
17292.347543568823,-0.1677462641481624,4.199999999999999,298.15
17292.349586303942,-0.1667166666655839,4.2,298.15
17292.357919637278,0.5,4.1513791144681385,298.15
17292.36625297061,0.5,4.144898554223404,298.15
17292.374586303944,0.5,4.1404113722120055,298.15
17292.38291963728,0.5,4.13690395706754,298.15
17292.39125297061,0.5,4.133967124256555,298.15
17292.399586303945,0.5,4.131388540588905,298.15
17292.407919637277,0.5,4.129050026803727,298.15
17292.416252970612,0.5,4.126885726938783,298.15
17292.424586303943,0.5,4.124857110118642,298.15
17292.43291963728,0.5,4.122941690807716,298.15
17292.44125297061,0.5,4.121125810231132,298.15
17292.449586303945,0.5,4.119401002669625,298.15
17292.457919637276,0.5,4.117761900119518,298.15
17292.46625297061,0.5,4.116203958213726,298.15
17292.474586303942,0.5,4.114722702045729,298.15
17292.482919637278,0.5,4.113311981773883,298.15
17292.49125297061,0.5,4.111965565811644,298.15
17292.499586303944,0.5,4.110677311787434,298.15
17292.50791963728,0.5,4.109439428742736,298.15
17292.51625297061,0.5,4.108234941845677,298.15
17292.524586303945,0.5,4.107054874237228,298.15
17292.532919637277,0.5,4.105895538237261,298.15
17292.541252970612,0.5,4.104755621005101,298.15
17292.549586303943,0.5,4.103632604110268,298.15
17292.55791963728,0.5,4.10252623878625,298.15
17292.56625297061,0.5,4.1014410906639895,298.15
17292.574586303945,0.5,4.100381932647929,298.15
17292.582919637276,0.5,4.099351837987808,298.15
17292.59125297061,0.5,4.098353896163388,298.15
17292.599586303942,0.5,4.097396531002005,298.15
17292.607919637278,0.5,4.096487241313012,298.15
17292.61625297061,0.5,4.095624168575373,298.15
17292.624586303944,0.5,4.09480058148719,298.15
17292.63291963728,0.5,4.094003778422328,298.15
17292.64125297061,0.5,4.0932160477051145,298.15
17292.649586303945,0.5,4.09242800558849,298.15
17292.657919637277,0.5,4.091636671564515,298.15
17292.666252970612,0.5,4.090847607629035,298.15
17292.674586303943,0.5,4.090065302562107,298.15
17292.68291963728,0.5,4.089293038566747,298.15
17292.69125297061,0.5,4.088538749408868,298.15
17292.699586303945,0.5,4.0878110804229895,298.15
17292.707919637276,0.5,4.087113263068623,298.15
17292.71625297061,0.5,4.086446839161016,298.15
17292.724586303942,0.5,4.085810932165956,298.15
17292.732919637278,0.5,4.08519867187632,298.15
17292.74125297061,0.5,4.084602831146827,298.15
17292.749586303944,0.5,4.084019699771635,298.15
17292.75791963728,0.5,4.083439597144398,298.15
17292.76625297061,0.5,4.082854657316174,298.15
17292.774586303945,0.5,4.082272733302059,298.15
17292.782919637277,0.5,4.08170178424575,298.15
17292.791252970612,0.5,4.081146150893785,298.15
17292.799586303943,0.5,4.080610103293443,298.15
17292.80791963728,0.5,4.080093983220014,298.15
17292.81625297061,0.5,4.079595868716434,298.15
17292.824586303945,0.5,4.079116223671273,298.15
17292.832919637276,0.5,4.0786558400741,298.15
17292.84125297061,0.5,4.078213818601219,298.15
17292.849586303942,0.5,4.0777890778916825,298.15
17292.857919637278,0.5,4.077383428703914,298.15
17292.86625297061,0.5,4.076995617169207,298.15
17292.874586303944,0.5,4.076622484892816,298.15
17292.88291963728,0.5,4.076262218619744,298.15
17292.89125297061,0.5,4.075903222334206,298.15
17292.899586303945,0.5,4.075543506329737,298.15
17292.907919637277,0.5,4.07518110789874,298.15
17292.916252970612,0.5,4.074818158436149,298.15
17292.924586303943,0.5,4.074460102123513,298.15
17292.93291963728,0.5,4.074107619701552,298.15
17292.94125297061,0.5,4.073763274722428,298.15
17292.949586303945,0.5,4.073432780566955,298.15
17292.957919637276,0.5,4.073120524543183,298.15
17292.96625297061,0.5,4.072829226527562,298.15
17292.974586303942,0.5,4.072561038671843,298.15
17292.982919637278,0.5,4.072314707689024,298.15
17292.99125297061,0.5,4.0720857796447305,298.15
17292.999586303944,0.5,4.071869681720746,298.15
17293.00791963728,0.5,4.071657074049197,298.15
17293.01625297061,0.5,4.071435912961612,298.15
17293.024586303945,0.5,4.071188851416308,298.15
17293.032919637277,0.5,4.07091696493332,298.15
17293.041252970612,0.5,4.070629652417333,298.15
17293.049586303943,0.5,4.070342258557296,298.15
17293.05791963728,0.5,4.070071359769947,298.15
17293.06625297061,0.5,4.069824969062911,298.15
17293.074586303945,0.5,4.069608570212068,298.15
17293.082919637276,0.5,4.069421410757451,298.15
17293.09125297061,0.5,4.06925670113035,298.15
17293.099586303942,0.5,4.069104101092558,298.15
17293.107919637278,0.5,4.06895141123381,298.15
17293.11625297061,0.5,4.068791413639758,298.15
17293.124586303944,0.5,4.068623553890215,298.15
17293.13291963728,0.5,4.068450904671169,298.15
17293.14125297061,0.5,4.068279593271939,298.15
17293.149586303945,0.5,4.068114616729918,298.15
17293.157919637277,0.5,4.067956815877995,298.15
17293.166252970612,0.5,4.067804322446781,298.15
17293.174586303943,0.5,4.067655099314356,298.15
17293.18291963728,0.5,4.067506317267021,298.15
17293.19125297061,0.5,4.0673587997787495,298.15
17293.199586303945,0.5,4.067216982260838,298.15
17293.207919637276,0.5,4.067079881572271,298.15
17293.21625297061,0.5,4.066943269004201,298.15
17293.224586303942,0.5,4.066802389965996,298.15
17293.232919637278,0.5,4.066648258339955,298.15
17293.24125297061,0.5,4.066477947314452,298.15
17293.249586303944,0.5,4.0662988815301535,298.15
17293.25791963728,0.5,4.0661172765955165,298.15
17293.26625297061,0.5,4.06593795513019,298.15
17293.274586303945,0.5,4.065768626273961,298.15
17293.282919637277,0.5,4.065609185917395,298.15
17293.291252970612,0.5,4.065453275068848,298.15
17293.299586303943,0.5,4.065294428292859,298.15
17293.30791963728,0.5,4.065126801903267,298.15
17293.31625297061,0.5,4.064943379398674,298.15
17293.324586303945,0.5,4.064744221943145,298.15
17293.332919637276,0.5,4.064533053667315,298.15
17293.34125297061,0.5,4.0643156782862135,298.15
17293.349586303942,0.5,4.0641007391273245,298.15
17293.357919637278,0.5,4.063890895698179,298.15
17293.36625297061,0.5,4.063685658966775,298.15
17293.374586303944,0.5,4.063484934668162,298.15
17293.38291963728,0.5,4.063287169618462,298.15
17293.39125297061,0.5,4.06308423214708,298.15
17293.399586303945,0.5,4.0628700759269645,298.15
17293.407919637277,0.5,4.062640393872099,298.15
17293.416252970612,0.5,4.062390802646471,298.15
17293.424586303943,0.5,4.062119752075255,298.15
17293.43291963728,0.5,4.061830723458278,298.15
17293.44125297061,0.5,4.061529026701787,298.15
17293.449586303945,0.5,4.061220327316819,298.15
17293.457919637276,0.5,4.060914264764541,298.15
17293.46625297061,0.5,4.0606204910320765,298.15
17293.474586303942,0.5,4.060341071905983,298.15
17293.482919637278,0.5,4.0600729483789415,298.15
17293.49125297061,0.5,4.059809573773945,298.15
17293.499586303944,0.5,4.059541356661834,298.15
17293.50791963728,0.5,4.059257333549489,298.15
17293.51625297061,0.5,4.058950056531543,298.15
17293.524586303945,0.5,4.058618000740907,298.15
17293.532919637277,0.5,4.058260810041892,298.15
17293.541252970612,0.5,4.057884031471817,298.15
17293.549586303943,0.5,4.057495656812334,298.15
17293.55791963728,0.5,4.057104353132543,298.15
17293.56625297061,0.5,4.056714956468712,298.15
17293.574586303945,0.5,4.056329268555031,298.15
17293.582919637276,0.5,4.055951061617678,298.15
17293.59125297061,0.5,4.055582193840863,298.15
17293.599586303942,0.5,4.055217875486172,298.15
17293.607919637278,0.5,4.054850505893306,298.15
17293.61625297061,0.5,4.054473981373754,298.15
17293.624586303944,0.5,4.05407887118024,298.15
17293.63291963728,0.5,4.053655824369793,298.15
17293.64125297061,0.5,4.05320041453502,298.15
17293.649586303945,0.5,4.052712889864572,298.15
17293.657919637277,0.5,4.052202388054845,298.15
17293.666252970612,0.5,4.051685585953293,298.15
17293.674586303943,0.5,4.051178702698707,298.15
17293.68291963728,0.5,4.0506971494565285,298.15
17293.69125297061,0.5,4.05024675064296,298.15
17293.699586303945,0.5,4.049821195375646,298.15
17293.707919637276,0.5,4.049405324717195,298.15
17293.71625297061,0.5,4.0489796243024605,298.15
17293.724586303942,0.5,4.048525619998269,298.15
17293.732919637278,0.5,4.048031258167788,298.15
17293.74125297061,0.5,4.047492990627315,298.15
17293.749586303944,0.5,4.046914527036714,298.15
17293.75791963728,0.5,4.046307727514044,298.15
17293.76625297061,0.5,4.0456903649876725,298.15
17293.774586303945,0.5,4.045080839184684,298.15
17293.782919637277,0.5,4.044495406234494,298.15
17293.791252970612,0.5,4.043942865791465,298.15
17293.799586303943,0.5,4.043421570746119,298.15
17293.80791963728,0.5,4.042916701479328,298.15
17293.81625297061,0.5,4.042409037549083,298.15
17293.824586303945,0.5,4.041878644908052,298.15
17293.832919637276,0.5,4.041310076033261,298.15
17293.84125297061,0.5,4.040698205769399,298.15
17293.849586303942,0.5,4.040050022455994,298.15
17293.857919637278,0.5,4.039379425462791,298.15
17293.86625297061,0.5,4.038698227672916,298.15
17293.874586303944,0.5,4.038016085133554,298.15
17293.88291963728,0.5,4.037342444626692,298.15
17293.89125297061,0.5,4.036682114383334,298.15
17293.899586303945,0.5,4.036039714432608,298.15
17293.907919637277,0.5,4.035417990847267,298.15
17293.916252970612,0.5,4.034810674620911,298.15
17293.924586303943,0.5,4.034209349743257,298.15
17293.93291963728,0.5,4.033600673104456,298.15
17293.94125297061,0.5,4.032965121853609,298.15
17293.949586303945,0.5,4.032291745010651,298.15
17293.957919637276,0.5,4.031586688758338,298.15
17293.96625297061,0.5,4.0308574953115,298.15
17293.974586303942,0.5,4.03010906070817,298.15
17293.982919637278,0.5,4.029354475340082,298.15
17293.99125297061,0.5,4.028603123262652,298.15
17293.999586303944,0.5,4.02785634124384,298.15
17294.00791963728,0.5,4.027115691776174,298.15
17294.01625297061,0.5,4.026387735677991,298.15
17294.024586303945,0.5,4.025673594679075,298.15
17294.032919637277,0.5,4.024968600767488,298.15
17294.041252970612,0.5,4.02426562861689,298.15
17294.049586303943,0.5,4.023557905880507,298.15
17294.05791963728,0.5,4.022845836936941,298.15
17294.06625297061,0.5,4.0221320340611655,298.15
17294.074586303945,0.5,4.021419795690782,298.15
17294.082919637276,0.5,4.020708623023774,298.15
17294.09125297061,0.5,4.019991584843448,298.15
17294.099586303942,0.5,4.019258826218234,298.15
17294.107919637278,0.5,4.018509172276675,298.15
17294.11625297061,0.5,4.017745970204162,298.15
17294.124586303944,0.5,4.016972280097006,298.15
17294.13291963728,0.5,4.016186732182344,298.15
17294.14125297061,0.5,4.015388395838889,298.15
17294.149586303945,0.5,4.01458001863975,298.15
17294.157919637277,0.5,4.013764786937669,298.15
17294.166252970612,0.5,4.0129523372185005,298.15
17294.174586303943,0.5,4.012161122024027,298.15
17294.18291963728,0.5,4.011405057085341,298.15
17294.19125297061,0.5,4.010686031306772,298.15
17294.199586303945,0.5,4.009990479299937,298.15
17294.207919637276,0.5,4.009299455833687,298.15
17294.21625297061,0.5,4.008592795454197,298.15
17294.224586303942,0.5,4.007849929845122,298.15
17294.232919637278,0.5,4.007057596536395,298.15
17294.24125297061,0.5,4.0062189270212,298.15
17294.249586303944,0.5,4.005348492492356,298.15
17294.25791963728,0.5,4.004469461684796,298.15
17294.26625297061,0.5,4.003605427661249,298.15
17294.274586303945,0.5,4.002772209530284,298.15
17294.282919637277,0.5,4.001973022875545,298.15
17294.291252970612,0.5,4.001197505809591,298.15
17294.299586303943,0.5,4.000424636584708,298.15
17294.30791963728,0.5,3.999630758006575,298.15
17294.31625297061,0.5,3.998809067861243,298.15
17294.324586303945,0.5,3.9979766434900617,298.15
17294.332919637276,0.5,3.997154409041984,298.15
17294.34125297061,0.5,3.9963556711819592,298.15
17294.349586303942,0.5,3.995582803836697,298.15
17294.357919637278,0.5,3.9948332286260655,298.15
17294.36625297061,0.5,3.994096860637554,298.15
17294.374586303944,0.5,3.993354869566091,298.15
17294.38291963728,0.5,3.992592624473079,298.15
17294.39125297061,0.5,3.991798684950745,298.15
17294.399586303945,0.5,3.990970065475489,298.15
17294.407919637277,0.5,3.990112898765832,298.15
17294.416252970612,0.5,3.989240210574604,298.15
17294.424586303943,0.5,3.988368326441925,298.15
17294.43291963728,0.5,3.987509032253296,298.15
17294.44125297061,0.5,3.9866734848472376,298.15
17294.449586303945,0.5,3.985858925834936,298.15
