Time,Current,Terminal Voltage,Ambient Temperature
7120.442434911264,-2.5,4.192312213423626,298.15
7120.450768244597,-2.5,4.194874633816639,298.15
7120.459101577931,-2.5,4.197305438018878,298.15
7120.467434911265,-2.5,4.199669447643949,298.15
7120.468604484046,-2.5,4.199990000000126,298.15
7120.47693781738,-2.451178922254843,4.200000000000003,298.15
7120.485271150713,-2.4168437966886063,4.199999999999999,298.15
7120.493604484046,-2.3718807898684044,4.200000000000001,298.15
7120.501937817379,-2.3440135873473444,4.199999999999999,298.15
7120.510271150713,-2.319588021031303,4.200000000000001,298.15
7120.518604484047,-2.290360469521668,4.199999999999999,298.15
7120.52693781738,-2.2652036914793703,4.199999999999999,298.15
7120.535271150713,-2.2403762427031584,4.200000000000001,298.15
7120.543604484046,-2.2180328161556813,4.1999999999999975,298.15
7120.551937817379,-2.1978454097419204,4.199999999999999,298.15
7120.560271150713,-2.176161484381392,4.200000000000003,298.15
7120.568604484046,-2.1521517275926745,4.200000000000001,298.15
7120.57693781738,-2.1329787677002408,4.19999999999999,298.15
7120.585271150713,-2.109926956330062,4.199999999999997,298.15
7120.593604484046,-2.0855907216918688,4.1999999999999975,298.15
7120.60193781738,-2.0592908080203545,4.2,298.15
7120.610271150713,-2.03320815908721,4.199999999999999,298.15
7120.618604484046,-2.010170731038761,4.1999999999999975,298.15
7120.626937817379,-1.9803692102904868,4.199999999999999,298.15
7120.635271150713,-1.9469352272361728,4.199999999999999,298.15
7120.643604484047,-1.9160485109718344,4.199999999999996,298.15
7120.65193781738,-1.886025182876205,4.199999999999999,298.15
7120.660271150713,-1.852921868969688,4.199999999999999,298.15
7120.668604484046,-1.8204007069738604,4.2,298.15
7120.676937817379,-1.7846374657367206,4.200000000000001,298.15
7120.685271150713,-1.74554170481615,4.199999999999999,298.15
7120.693604484046,-1.7084398557418123,4.2,298.15
7120.70193781738,-1.671924301295934,4.199999999999999,298.15
7120.710271150713,-1.6375171193767526,4.199999999999999,298.15
7120.718604484046,-1.6032679235766991,4.199999999999999,298.15
7120.72693781738,-1.5653864151116932,4.199999999999999,298.15
7120.735271150713,-1.52608431346673,4.199999999999999,298.15
7120.743604484046,-1.4892258191271688,4.200000000000001,298.15
7120.751937817379,-1.4545974681046898,4.2,298.15
7120.760271150713,-1.419961592269734,4.199999999999999,298.15
7120.768604484047,-1.3834536275892009,4.199999999999999,298.15
7120.77693781738,-1.346651113172293,4.199999999999999,298.15
7120.785271150713,-1.3107621009286086,4.2,298.15
7120.793604484046,-1.2773994904481454,4.199999999999999,298.15
7120.801937817379,-1.246487041323603,4.199999999999999,298.15
7120.810271150713,-1.215020396445712,4.199999999999999,298.15
7120.818604484046,-1.1821993503189197,4.200000000000001,298.15
7120.82693781738,-1.150310900880538,4.199999999999999,298.15
7120.835271150713,-1.1206643926986315,4.200000000000001,298.15
7120.843604484046,-1.0921592509804152,4.199999999999999,298.15
7120.85193781738,-1.0638303979811548,4.2,298.15
7120.860271150713,-1.036135481914943,4.200000000000001,298.15
7120.868604484046,-1.008890265031079,4.200000000000001,298.15
7120.876937817379,-0.9815619793703032,4.199999999999999,298.15
7120.885271150713,-0.9546065447338709,4.2,298.15
7120.893604484047,-0.9289272401152142,4.199999999999999,298.15
7120.90193781738,-0.9050411291261063,4.199999999999999,298.15
7120.910271150713,-0.8825020496114888,4.199999999999999,298.15
7120.918604484046,-0.8602357845055525,4.199999999999999,298.15
7120.926937817379,-0.8377734934743591,4.199999999999999,298.15
7120.935271150713,-0.8151230887347212,4.199999999999999,298.15
7120.943604484046,-0.7928673728785046,4.199999999999999,298.15
7120.95193781738,-0.7717619225949373,4.199999999999999,298.15
7120.960271150713,-0.7520365787411852,4.199999999999999,298.15
7120.968604484046,-0.7332721773346239,4.2,298.15
7120.97693781738,-0.7148449239825099,4.199999999999999,298.15
7120.985271150713,-0.6963724651738814,4.200000000000001,298.15
7120.993604484046,-0.677872803982491,4.199999999999999,298.15
7121.001937817379,-0.6597371301909166,4.200000000000001,298.15
7121.010271150713,-0.6422778176452282,4.199999999999998,298.15
7121.018604484047,-0.6254574954272791,4.200000000000001,298.15
7121.02693781738,-0.6092611326721837,4.2,298.15
7121.035271150713,-0.5937754160973595,4.200000000000001,298.15
7121.043604484046,-0.5789742960713316,4.2,298.15
7121.051937817379,-0.5647122908399209,4.199999999999996,298.15
7121.060271150713,-0.5506969072945849,4.199999999999999,298.15
7121.068604484046,-0.5367338126289222,4.199999999999998,298.15
7121.07693781738,-0.522641561663116,4.2,298.15
7121.085271150713,-0.5085411045842158,4.2,298.15
7121.093604484046,-0.4946907290746892,4.199999999999999,298.15
7121.10193781738,-0.4811316940757136,4.199999999999999,298.15
7121.110271150713,-0.467978931841887,4.199999999999999,298.15
7121.118604484046,-0.455322245410057,4.2,298.15
7121.126937817379,-0.443183777809136,4.199999999999999,298.15
7121.135271150713,-0.4316613704845837,4.2,298.15
7121.143604484047,-0.4207387161430978,4.200000000000002,298.15
7121.15193781738,-0.4103228171329708,4.200000000000003,298.15
7121.160271150713,-0.400275390394387,4.2,298.15
7121.168604484046,-0.3904398404771939,4.200000000000001,298.15
7121.176937817379,-0.3807720677594118,4.199999999999999,298.15
7121.185271150713,-0.3713198351676527,4.200000000000001,298.15
7121.193604484046,-0.362067906686466,4.200000000000001,298.15
7121.20193781738,-0.3529803789155895,4.200000000000001,298.15
7121.210271150713,-0.3440891212796808,4.200000000000001,298.15
7121.218604484046,-0.3354087594736817,4.199999999999999,298.15
7121.22693781738,-0.3268781490337974,4.199999999999999,298.15
7121.235271150713,-0.3184481592513737,4.199999999999999,298.15
7121.243604484046,-0.3101002486437468,4.2,298.15
7121.251937817379,-0.30187222596354,4.199999999999999,298.15
7121.260271150713,-0.293780231947996,4.200000000000001,298.15
7121.268604484047,-0.2858505418360382,4.199999999999999,298.15
7121.27693781738,-0.2780928132735431,4.199999999999999,298.15
7121.285271150713,-0.2705822212657833,4.2,298.15
7121.293604484046,-0.2633697807054416,4.200000000000001,298.15
7121.301937817379,-0.2564756202511887,4.200000000000001,298.15
7121.310271150713,-0.2499024895684938,4.200000000000001,298.15
7121.318604484046,-0.2436350489456777,4.2,298.15
7121.32693781738,-0.2376487492984598,4.2,298.15
7121.335271150713,-0.231940587232518,4.200000000000001,298.15
7121.343604484046,-0.2264657641201299,4.2,298.15
7121.35193781738,-0.2211726075047979,4.2,298.15
7121.360271150713,-0.2160128410308878,4.199999999999999,298.15
7121.368604484046,-0.2109344390068319,4.199999999999999,298.15
7121.376937817379,-0.2059037897677074,4.2,298.15
7121.385271150713,-0.2009031565639108,4.199999999999999,298.15
7121.393604484047,-0.1959094437126217,4.199999999999999,298.15
7121.40193781738,-0.1909318821657948,4.2,298.15
7121.410271150713,-0.1859901093814828,4.2,298.15
7121.418604484046,-0.1811073828128303,4.199999999999998,298.15
7121.426937817379,-0.1763132455158086,4.199999999999999,298.15
7121.435271150713,-0.1716205460642425,4.199999999999999,298.15
7121.443604484046,-0.1670573312471102,4.2,298.15
7121.444237036686,-0.1667166666662365,4.200000000000001,298.15
7121.45257037002,0.5,4.15365781877574,298.15
7121.460903703353,0.5,4.14737515918139,298.15
7121.469237036687,0.5,4.143034823788621,298.15
7121.47757037002,0.5,4.139622368323078,298.15
7121.485903703353,0.5,4.1367370302420445,298.15
7121.494237036686,0.5,4.134182737629257,298.15
7121.502570370019,0.5,4.131855668582731,298.15
7121.510903703353,0.5,4.129697734389685,298.15
7121.519237036687,0.5,4.127672547720689,298.15
7121.52757037002,0.5,4.125756875664512,298.15
7121.535903703353,0.5,4.1239330556852405,298.15
7121.544237036686,0.5,4.122188280560433,298.15
7121.55257037002,0.5,4.120522295400172,298.15
7121.560903703353,0.5,4.118933523940819,298.15
7121.569237036686,0.5,4.117420390724833,298.15
7121.57757037002,0.5,4.115977303444351,298.15
7121.585903703353,0.5,4.1145942263635895,298.15
7121.594237036687,0.5,4.113261222749478,298.15
7121.60257037002,0.5,4.111969890678717,298.15
7121.610903703353,0.5,4.110714178109756,298.15
7121.619237036686,0.5,4.109489496258377,298.15
7121.627570370019,0.5,4.108301227685605,298.15
7121.635903703353,0.5,4.107151548487293,298.15
7121.644237036687,0.5,4.106034210589336,298.15
7121.65257037002,0.5,4.104951799331075,298.15
7121.660903703353,0.5,4.103906148439606,298.15
7121.669237036686,0.5,4.102896392670639,298.15
7121.67757037002,0.5,4.10191632952354,298.15
7121.685903703353,0.5,4.10095417048289,298.15
7121.694237036686,0.5,4.100000239207356,298.15
7121.70257037002,0.5,4.099049929050997,298.15
7121.710903703353,0.5,4.09810391988388,298.15
7121.719237036687,0.5,4.097171117573021,298.15
7121.72757037002,0.5,4.096260703955543,298.15
7121.735903703353,0.5,4.095383843697098,298.15
7121.744237036686,0.5,4.094542098628145,298.15
7121.752570370019,0.5,4.093738160452701,298.15
7121.760903703353,0.5,4.092971015426658,298.15
7121.769237036687,0.5,4.092233289136249,298.15
7121.77757037002,0.5,4.091518888254331,298.15
7121.785903703353,0.5,4.090818072507355,298.15
7121.794237036686,0.5,4.090118282838557,298.15
7121.80257037002,0.5,4.089418038466672,298.15
7121.810903703353,0.5,4.088722555135458,298.15
7121.819237036686,0.5,4.088039088775681,298.15
7121.82757037002,0.5,4.0873744981332685,298.15
7121.835903703353,0.5,4.086738497431263,298.15
7121.844237036687,0.5,4.086139192591841,298.15
7121.85257037002,0.5,4.085568771095851,298.15
7121.860903703353,0.5,4.085024069312377,298.15
7121.869237036686,0.5,4.084500503110792,298.15
7121.877570370019,0.5,4.083989808743145,298.15
7121.885903703353,0.5,4.083485336326648,298.15
7121.894237036687,0.5,4.082982315122897,298.15
7121.90257037002,0.5,4.082476751730498,298.15
7121.910903703353,0.5,4.081970179991538,298.15
7121.919237036686,0.5,4.081471556415167,298.15
7121.92757037002,0.5,4.080989748015724,298.15
7121.935903703353,0.5,4.080533464759094,298.15
7121.944237036686,0.5,4.080108909140341,298.15
7121.95257037002,0.5,4.079714194950585,298.15
7121.960903703353,0.5,4.079338278124262,298.15
7121.969237036687,0.5,4.078963759722079,298.15
7121.97757037002,0.5,4.078586924896635,298.15
7121.985903703353,0.5,4.078207992076574,298.15
7121.994237036686,0.5,4.077833308034833,298.15
7122.002570370019,0.5,4.077466450679848,298.15
7122.010903703353,0.5,4.077108477742851,298.15
7122.019237036687,0.5,4.076765333036004,298.15
7122.02757037002,0.5,4.076442126823969,298.15
7122.035903703353,0.5,4.076138684055001,298.15
7122.044237036686,0.5,4.075855335965171,298.15
7122.05257037002,0.5,4.075588868905352,298.15
7122.060903703353,0.5,4.075331227825528,298.15
7122.069237036686,0.5,4.075073432453445,298.15
7122.07757037002,0.5,4.074806416265049,298.15
7122.085903703353,0.5,4.074519239209865,298.15
7122.094237036687,0.5,4.074220625328091,298.15
7122.10257037002,0.5,4.073921111003612,298.15
7122.110903703353,0.5,4.073630040359133,298.15
7122.119237036686,0.5,4.073357939429705,298.15
7122.127570370019,0.5,4.073110519896272,298.15
7122.135903703353,0.5,4.072888968366499,298.15
7122.144237036687,0.5,4.072691063068639,298.15
7122.15257037002,0.5,4.072511856102759,298.15
7122.160903703353,0.5,4.0723411906687526,298.15
7122.169237036686,0.5,4.072167685466232,298.15
7122.17757037002,0.5,4.071985790001035,298.15
7122.185903703353,0.5,4.0717937997598685,298.15
7122.194237036686,0.5,4.071594628151014,298.15
7122.20257037002,0.5,4.0713951506153,298.15
7122.210903703353,0.5,4.071204093120928,298.15
7122.219237036687,0.5,4.071027195067964,298.15
7122.22757037002,0.5,4.070863964147089,298.15
7122.235903703353,0.5,4.070710873607356,298.15
7122.244237036686,0.5,4.070563541869186,298.15
7122.252570370019,0.5,4.070416176853746,298.15
7122.260903703353,0.5,4.070263827779899,298.15
7122.269237036687,0.5,4.070106660605466,298.15
7122.27757037002,0.5,4.069945816157967,298.15
7122.285903703353,0.5,4.069783002209415,298.15
7122.294237036686,0.5,4.06961606022313,298.15
7122.30257037002,0.5,4.069445417330694,298.15
7122.310903703353,0.5,4.069273170182192,298.15
7122.319237036686,0.5,4.069100582709778,298.15
7122.32757037002,0.5,4.068927249531908,298.15
7122.335903703353,0.5,4.068753063624037,298.15
7122.344237036687,0.5,4.068577790144763,298.15
7122.35257037002,0.5,4.068403035830033,298.15
7122.360903703353,0.5,4.068229497842845,298.15
7122.369237036686,0.5,4.0680554176144215,298.15
7122.377570370019,0.5,4.06787717069703,298.15
7122.385903703353,0.5,4.06769341400965,298.15
7122.394237036687,0.5,4.067504968112932,298.15
7122.40257037002,0.5,4.067311651751671,298.15
7122.410903703353,0.5,4.067114912868321,298.15
7122.419237036686,0.5,4.066915865252328,298.15
7122.42757037002,0.5,4.0667134755395935,298.15
7122.435903703353,0.5,4.066505143442232,298.15
7122.444237036686,0.5,4.066292168864288,298.15
7122.45257037002,0.5,4.066077007893572,298.15
7122.460903703353,0.5,4.06586037242025,298.15
7122.469237036687,0.5,4.06564403106858,298.15
7122.47757037002,0.5,4.065432841783904,298.15
7122.485903703353,0.5,4.065230696153636,298.15
7122.494237036686,0.5,4.065034841730581,298.15
7122.502570370019,0.5,4.064841313712554,298.15
7122.510903703353,0.5,4.064643036136364,298.15
7122.519237036687,0.5,4.064429731775032,298.15
7122.52757037002,0.5,4.064192531763904,298.15
7122.535903703353,0.5,4.06392939477414,298.15
7122.544237036686,0.5,4.063643334979971,298.15
7122.55257037002,0.5,4.063343029786108,298.15
7122.560903703353,0.5,4.063038282679557,298.15
7122.569237036686,0.5,4.062735098428827,298.15
7122.57757037002,0.5,4.062438343601866,298.15
7122.585903703353,0.5,4.06214951470159,298.15
7122.594237036687,0.5,4.0618684490141685,298.15
7122.60257037002,0.5,4.061591023040701,298.15
7122.610903703353,0.5,4.061310086793792,298.15
7122.619237036686,0.5,4.061015252825283,298.15
7122.627570370019,0.5,4.060698464757333,298.15
7122.635903703353,0.5,4.060351223915012,298.15
7122.644237036687,0.5,4.059974488642075,298.15
7122.65257037002,0.5,4.059578528059127,298.15
7122.660903703353,0.5,4.059172416625415,298.15
7122.669237036686,0.5,4.058764203331899,298.15
7122.67757037002,0.5,4.058369022128467,298.15
7122.685903703353,0.5,4.057995794817263,298.15
7122.694237036686,0.5,4.057639565617157,298.15
7122.70257037002,0.5,4.057288895080653,298.15
7122.710903703353,0.5,4.056930603672896,298.15
7122.719237036687,0.5,4.056548228977521,298.15
7122.72757037002,0.5,4.056132029230807,298.15
7122.735903703353,0.5,4.055682564610303,298.15
7122.744237036686,0.5,4.055209182216134,298.15
7122.752570370019,0.5,4.054723181385833,298.15
7122.760903703353,0.5,4.054235639737012,298.15
7122.769237036687,0.5,4.05375510167657,298.15
7122.77757037002,0.5,4.053286340963963,298.15
7122.785903703353,0.5,4.052826993407509,298.15
7122.794237036686,0.5,4.052370977214281,298.15
7122.80257037002,0.5,4.051914236961959,298.15
7122.810903703353,0.5,4.051450678923859,298.15
7122.819237036686,0.5,4.050972758464081,298.15
7122.82757037002,0.5,4.050473087038613,298.15
7122.835903703353,0.5,4.049949267284187,298.15
7122.844237036687,0.5,4.049403797774133,298.15
7122.85257037002,0.5,4.048840797726547,298.15
7122.860903703353,0.5,4.048266354497956,298.15
7122.869237036686,0.5,4.04768911153192,298.15
7122.877570370019,0.5,4.047117200441624,298.15
7122.885903703353,0.5,4.046555130073028,298.15
7122.894237036687,0.5,4.046004127647474,298.15
7122.90257037002,0.5,4.045461823316519,298.15
7122.910903703353,0.5,4.044921595806359,298.15
7122.919237036686,0.5,4.044372861558567,298.15
7122.92757037002,0.5,4.04380646748467,298.15
7122.935903703353,0.5,4.0432190701962085,298.15
7122.944237036686,0.5,4.042606669949038,298.15
7122.95257037002,0.5,4.041965218938579,298.15
7122.960903703353,0.5,4.0413007911191885,298.15
7122.969237036687,0.5,4.040625001880645,298.15
7122.97757037002,0.5,4.039947708517882,298.15
7122.985903703353,0.5,4.0392816632385165,298.15
7122.994237036686,0.5,4.038638425533929,298.15
7123.002570370019,0.5,4.038019999103788,298.15
7123.010903703353,0.5,4.037415589199759,298.15
7123.019237036687,0.5,4.03680958951333,298.15
7123.02757037002,0.5,4.036187970640658,298.15
7123.035903703353,0.5,4.035542057292479,298.15
7123.044237036686,0.5,4.034867190526748,298.15
7123.05257037002,0.5,4.034170297584092,298.15
7123.060903703353,0.5,4.03346156447152,298.15
7123.069237036686,0.5,4.032750668126372,298.15
7123.07757037002,0.5,4.03204361803565,298.15
7123.085903703353,0.5,4.031343920448431,298.15
7123.094237036687,0.5,4.030650254472083,298.15
7123.10257037002,0.5,4.029958672357335,298.15
7123.110903703353,0.5,4.029266970172026,298.15
7123.119237036686,0.5,4.028575202375725,298.15
7123.127570370019,0.5,4.027881229173232,298.15
7123.135903703353,0.5,4.027182216652388,298.15
7123.144237036687,0.5,4.026479417458585,298.15
7123.15257037002,0.5,4.025768629052452,298.15
7123.160903703353,0.5,4.025042651191043,298.15
7123.169237036686,0.5,4.024299002648871,298.15
7123.17757037002,0.5,4.023538226050974,298.15
7123.185903703353,0.5,4.022763218829074,298.15
7123.194237036686,0.5,4.021983565137198,298.15
7123.20257037002,0.5,4.021210441521126,298.15
7123.210903703353,0.5,4.020454121368408,298.15
7123.219237036687,0.5,4.019718976219212,298.15
7123.22757037002,0.5,4.019002914334914,298.15
7123.235903703353,0.5,4.018296606532918,298.15
7123.244237036686,0.5,4.017584751818801,298.15
7123.252570370019,0.5,4.016849246139733,298.15
7123.260903703353,0.5,4.016081264836866,298.15
7123.269237036687,0.5,4.015287366573773,298.15
7123.27757037002,0.5,4.014478465874724,298.15
7123.285903703353,0.5,4.013666884317104,298.15
7123.294237036686,0.5,4.012862512905481,298.15
7123.30257037002,0.5,4.012071743782291,298.15
7123.310903703353,0.5,4.011291426275635,298.15
7123.319237036686,0.5,4.010514487797723,298.15
7123.32757037002,0.5,4.009733488947427,298.15
7123.335903703353,0.5,4.008938543176608,298.15
7123.344237036687,0.5,4.008127922923372,298.15
7123.35257037002,0.5,4.007310266089897,298.15
7123.360903703353,0.5,4.006498317097536,298.15
7123.369237036686,0.5,4.005703029703366,298.15
7123.377570370019,0.5,4.004933978174749,298.15
7123.385903703353,0.5,4.004190671926114,298.15
7123.394237036687,0.5,4.003459279532645,298.15
7123.40257037002,0.5,4.002727857642208,298.15
7123.410903703353,0.5,4.001985022488274,298.15
7123.419237036686,0.5,4.001217376267103,298.15
7123.42757037002,0.5,4.000421380463564,298.15
7123.435903703353,0.5,3.999604688109492,298.15
7123.444237036686,0.5,3.998771709036944,298.15
7123.45257037002,0.5,3.997930108818871,298.15
7123.460903703353,0.5,3.997089396338305,298.15
7123.469237036687,0.5,3.996256928064175,298.15
7123.47757037002,0.5,3.9954453815438393,298.15
7123.485903703353,0.5,3.994659978386712,298.15
7123.494237036686,0.5,3.993892580913378,298.15
7123.502570370019,0.5,3.9931362367569454,298.15
7123.510903703353,0.5,3.9923864950940384,298.15
7123.519237036687,0.5,3.9916316608271183,298.15
7123.52757037002,0.5,3.9908654573547766,298.15
7123.535903703353,0.5,3.990087102387685,298.15
7123.544237036686,0.5,3.9892956515027502,298.15
7123.55257037002,0.5,3.9884935130124703,298.15
7123.560903703353,0.5,3.9876914208900662,298.15
7123.569237036686,0.5,3.98689226721334,298.15
7123.57757037002,0.5,3.9860868172288217,298.15
7123.585903703353,0.5,3.985272622839392,298.15
7123.594237036687,0.5,3.984454194952024,298.15
7123.60257037002,0.5,3.983634337437541,298.15
7123.610903703353,0.5,3.982815120050564,298.15
7123.619237036686,0.5,3.9820038109464977,298.15
7123.627570370019,0.5,3.9812010130921935,298.15
7123.635903703353,0.5,3.980402087046574,298.15
7123.644237036687,0.5,3.979599203061927,298.15
7123.65257037002,0.5,3.978794457817646,298.15
7123.660903703353,0.5,3.978004587054292,298.15
7123.669237036686,0.5,3.977246450115709,298.15
7123.67757037002,0.5,3.97652522132622,298.15
7123.685903703353,0.5,3.9758255618884975,298.15
7123.694237036686,0.5,3.9751180520003833,298.15
7123.70257037002,0.5,3.974373989331179,298.15
