Time,Current,Terminal Voltage,Ambient Temperature
15259.581486210056,-2.5,4.191093492960219,298.15
15259.58981954339,-2.5,4.193312623093076,298.15
15259.598152876722,-2.5,4.195339643932091,298.15
15259.606486210056,-2.5,4.197244531014974,298.15
15259.614819543389,-2.5,4.198985670608062,298.15
15259.62024670992,-2.5,4.199989999999702,298.15
15259.628580043252,-2.4577813739663306,4.200000000000001,298.15
15259.636913376586,-2.4310747933748043,4.200000000000001,298.15
15259.64524670992,-2.399696203763618,4.199999999999999,298.15
15259.653580043252,-2.3684919054110405,4.200000000000001,298.15
15259.661913376583,-2.346470379853374,4.199999999999999,298.15
15259.67024670992,-2.3266809948064253,4.199999999999999,298.15
15259.678580043252,-2.29452524278245,4.199999999999999,298.15
15259.686913376583,-2.267233519127648,4.2,298.15
15259.695246709918,-2.2444835878814,4.200000000000001,298.15
15259.703580043251,-2.2168695840307038,4.199999999999999,298.15
15259.711913376585,-2.1908701213882003,4.199999999999999,298.15
15259.720246709918,-2.161218216698674,4.200000000000001,298.15
15259.728580043253,-2.1283271054762487,4.199999999999999,298.15
15259.736913376584,-2.098721992189718,4.2,298.15
15259.74524670992,-2.0680073432607644,4.200000000000001,298.15
15259.753580043252,-2.0302770412365305,4.199999999999999,298.15
15259.761913376586,-1.990064440570716,4.1999999999999975,298.15
15259.77024670992,-1.9530192848620096,4.199999999999999,298.15
15259.778580043252,-1.9171011674733889,4.199999999999999,298.15
15259.786913376583,-1.87703546273814,4.199999999999999,298.15
15259.79524670992,-1.8363051267920047,4.2,298.15
15259.803580043252,-1.7937156399638945,4.199999999999999,298.15
15259.811913376583,-1.7537716627529345,4.200000000000001,298.15
15259.820246709918,-1.7135351592513843,4.200000000000001,298.15
15259.828580043251,-1.6698404041847064,4.199999999999999,298.15
15259.836913376585,-1.6267810236918925,4.1999999999999975,298.15
15259.845246709918,-1.584641440582215,4.199999999999999,298.15
15259.853580043253,-1.543479275953621,4.199999999999999,298.15
15259.861913376584,-1.5022752750891857,4.199999999999998,298.15
15259.87024670992,-1.4626173210079556,4.199999999999999,298.15
15259.878580043252,-1.4255380519214076,4.2,298.15
15259.886913376586,-1.389464706477921,4.200000000000001,298.15
15259.89524670992,-1.3524495076700735,4.200000000000001,298.15
15259.903580043252,-1.314955143570777,4.199999999999999,298.15
15259.911913376583,-1.2786866622318194,4.1999999999999975,298.15
15259.92024670992,-1.2443573318202568,4.199999999999999,298.15
15259.928580043252,-1.2114285337542718,4.200000000000001,298.15
15259.936913376583,-1.1788220151023678,4.199999999999999,298.15
15259.945246709918,-1.146262981582711,4.199999999999999,298.15
15259.953580043251,-1.1147978624384651,4.199999999999998,298.15
15259.961913376585,-1.0845136896108478,4.199999999999998,298.15
15259.970246709918,-1.0552309526097354,4.199999999999999,298.15
15259.978580043253,-1.0274787481825411,4.199999999999999,298.15
15259.986913376584,-1.0010964530223103,4.199999999999999,298.15
15259.99524670992,-0.974294412041689,4.1999999999999975,298.15
15260.003580043252,-0.9469048137592112,4.199999999999999,298.15
15260.011913376586,-0.9204942933368576,4.199999999999998,298.15
15260.02024670992,-0.8960844001360397,4.2,298.15
15260.028580043252,-0.8731302619795236,4.199999999999999,298.15
15260.036913376583,-0.8505709940646561,4.199999999999996,298.15
15260.04524670992,-0.8278550321839527,4.200000000000003,298.15
15260.053580043252,-0.8053761793752892,4.2,298.15
15260.061913376583,-0.7835266339308318,4.199999999999999,298.15
15260.070246709918,-0.7623397472288584,4.199999999999999,298.15
15260.078580043251,-0.7415947861266557,4.200000000000001,298.15
15260.086913376585,-0.7215138716629094,4.200000000000001,298.15
15260.095246709918,-0.7019737916454255,4.200000000000001,298.15
15260.103580043253,-0.6827577823034205,4.2,298.15
15260.111913376584,-0.6637614018608691,4.200000000000001,298.15
15260.12024670992,-0.6453843989734072,4.199999999999999,298.15
15260.128580043252,-0.6280305805898276,4.200000000000004,298.15
15260.136913376586,-0.6118025425736673,4.200000000000001,298.15
15260.14524670992,-0.596356372068199,4.200000000000001,298.15
15260.153580043252,-0.5812573072969923,4.199999999999999,298.15
15260.161913376583,-0.5661062666974349,4.199999999999999,298.15
15260.17024670992,-0.5509781911365483,4.199999999999999,298.15
15260.178580043252,-0.5362001096129789,4.199999999999999,298.15
15260.186913376583,-0.521805834910858,4.2000000000000055,298.15
15260.195246709918,-0.5078347109980995,4.200000000000001,298.15
15260.203580043251,-0.4941912363593964,4.1999999999999975,298.15
15260.211913376585,-0.4807476922757532,4.200000000000001,298.15
15260.220246709918,-0.4676372727285238,4.2,298.15
15260.228580043253,-0.4549522278484642,4.1999999999999975,298.15
15260.236913376584,-0.4427905801090882,4.200000000000002,298.15
15260.24524670992,-0.4312178510336704,4.200000000000003,298.15
15260.253580043252,-0.4201460917270396,4.199999999999999,298.15
15260.261913376586,-0.4095236088863111,4.2,298.15
15260.27024670992,-0.3992300324740023,4.199999999999999,298.15
15260.278580043252,-0.3891246058069768,4.200000000000001,298.15
15260.286913376583,-0.3791323432534901,4.199999999999998,298.15
15260.29524670992,-0.3692882574579241,4.200000000000001,298.15
15260.303580043252,-0.3595703336637615,4.200000000000001,298.15
15260.311913376583,-0.350024500572237,4.199999999999998,298.15
15260.320246709918,-0.3407157093434005,4.199999999999999,298.15
15260.328580043251,-0.3316780943385597,4.199999999999999,298.15
15260.336913376585,-0.3228961456604248,4.199999999999999,298.15
15260.345246709918,-0.3143800523722312,4.200000000000001,298.15
15260.353580043253,-0.3061412243316761,4.199999999999999,298.15
15260.361913376584,-0.2981352523113175,4.200000000000001,298.15
15260.37024670992,-0.2903104612750228,4.199999999999999,298.15
15260.378580043252,-0.282668882012687,4.199999999999999,298.15
15260.386913376586,-0.2752486005347456,4.199999999999999,298.15
15260.39524670992,-0.2680404516513942,4.2,298.15
15260.403580043252,-0.2610177230866137,4.199999999999999,298.15
15260.411913376583,-0.2541634156616712,4.199999999999999,298.15
15260.42024670992,-0.2474919804497329,4.2,298.15
15260.428580043252,-0.2410055095605792,4.199999999999999,298.15
15260.436913376583,-0.2346923427561688,4.200000000000001,298.15
15260.445246709918,-0.2285393735501763,4.200000000000006,298.15
15260.453580043251,-0.2225716119908372,4.199999999999999,298.15
15260.461913376585,-0.2168130354459341,4.200000000000001,298.15
15260.470246709918,-0.2112568070323761,4.199999999999999,298.15
15260.478580043253,-0.2058902447699928,4.199999999999999,298.15
15260.486913376584,-0.2006963911445236,4.200000000000001,298.15
15260.49524670992,-0.1956519257508942,4.199999999999998,298.15
15260.503580043252,-0.1907362937520215,4.200000000000001,298.15
15260.511913376586,-0.1859332601224241,4.199999999999998,298.15
15260.52024670992,-0.1812389975069759,4.199999999999999,298.15
15260.528580043252,-0.1766611317663639,4.199999999999999,298.15
15260.536913376583,-0.1722079808710416,4.199999999999999,298.15
15260.54524670992,-0.16788131520884,4.200000000000001,298.15
15260.547535342304,-0.1667166666667447,4.199999999999999,298.15
15260.555868675636,0.5,4.154952385623101,298.15
15260.564202008967,0.5,4.148710497357341,298.15
15260.572535342302,0.5,4.144361813110709,298.15
15260.580868675635,0.5,4.1409175512894425,298.15
15260.58920200897,0.5,4.137995530357696,298.15
15260.597535342304,0.5,4.135415217077327,298.15
15260.605868675637,0.5,4.133080475151864,298.15
15260.61420200897,0.5,4.13093445847049,298.15
15260.622535342303,0.5,4.128937375833232,298.15
15260.630868675637,0.5,4.12705877194118,298.15
15260.63920200897,0.5,4.125266428942316,298.15
15260.647535342305,0.5,4.123540305925916,298.15
15260.655868675636,0.5,4.121870403117676,298.15
15260.66420200897,0.5,4.120254613565044,298.15
15260.672535342304,0.5,4.11869667034031,298.15
15260.680868675636,0.5,4.117200538665321,298.15
15260.689202008967,0.5,4.115769660659078,298.15
15260.697535342302,0.5,4.114406434422147,298.15
15260.705868675635,0.5,4.113108597277822,298.15
15260.71420200897,0.5,4.111864582500948,298.15
15260.722535342304,0.5,4.110654016544001,298.15
15260.730868675637,0.5,4.109476159156888,298.15
15260.73920200897,0.5,4.108328633543156,298.15
15260.747535342303,0.5,4.107208674972604,298.15
15260.755868675637,0.5,4.106119588885788,298.15
15260.76420200897,0.5,4.105066005141541,298.15
15260.772535342305,0.5,4.104046605547618,298.15
15260.780868675636,0.5,4.103054450890622,298.15
15260.78920200897,0.5,4.10208322415804,298.15
15260.797535342304,0.5,4.101126480242948,298.15
15260.805868675636,0.5,4.100178573417772,298.15
15260.814202008967,0.5,4.099238227737106,298.15
15260.822535342302,0.5,4.098310944211298,298.15
15260.830868675635,0.5,4.097399924556752,298.15
15260.83920200897,0.5,4.096504020262324,298.15
15260.847535342304,0.5,4.095634952424745,298.15
15260.855868675637,0.5,4.094803409181051,298.15
15260.86420200897,0.5,4.094014357635004,298.15
15260.872535342303,0.5,4.093268970933259,298.15
15260.880868675637,0.5,4.09256132848444,298.15
15260.88920200897,0.5,4.091879914116523,298.15
15260.897535342305,0.5,4.091214170283371,298.15
15260.905868675636,0.5,4.090558307803115,298.15
15260.91420200897,0.5,4.089909984439919,298.15
15260.922535342304,0.5,4.0892605834677855,298.15
15260.930868675636,0.5,4.088613728199213,298.15
15260.939202008967,0.5,4.087977442058048,298.15
15260.947535342302,0.5,4.087354090604766,298.15
15260.955868675635,0.5,4.086742128359022,298.15
15260.96420200897,0.5,4.086136681963256,298.15
15260.972535342304,0.5,4.085538128289069,298.15
15260.980868675637,0.5,4.084946961260901,298.15
15260.98920200897,0.5,4.084365861527708,298.15
15260.997535342303,0.5,4.083801961773975,298.15
15261.005868675637,0.5,4.083258206128465,298.15
15261.01420200897,0.5,4.082735726325955,298.15
15261.022535342305,0.5,4.082244815360783,298.15
15261.030868675636,0.5,4.08179281187419,298.15
15261.03920200897,0.5,4.081376203465637,298.15
15261.047535342304,0.5,4.080979647588164,298.15
15261.055868675636,0.5,4.080588035841102,298.15
15261.064202008967,0.5,4.080189884031137,298.15
15261.072535342302,0.5,4.079778988755835,298.15
15261.080868675635,0.5,4.079359567963666,298.15
15261.08920200897,0.5,4.078945988832221,298.15
15261.097535342304,0.5,4.078544872565468,298.15
15261.105868675637,0.5,4.078164307455672,298.15
15261.11420200897,0.5,4.077823024842711,298.15
15261.122535342303,0.5,4.077522135298992,298.15
15261.130868675637,0.5,4.077251188194602,298.15
15261.13920200897,0.5,4.076993785438146,298.15
15261.147535342305,0.5,4.076731412617084,298.15
15261.155868675636,0.5,4.076450667614878,298.15
15261.16420200897,0.5,4.076153780838749,298.15
15261.172535342304,0.5,4.075851386305217,298.15
15261.180868675636,0.5,4.075555727547311,298.15
15261.189202008967,0.5,4.07527722738975,298.15
15261.197535342302,0.5,4.075021334781338,298.15
15261.205868675635,0.5,4.074786986950936,298.15
15261.21420200897,0.5,4.074567506703608,298.15
15261.222535342304,0.5,4.074353277892325,298.15
15261.230868675637,0.5,4.074136606324172,298.15
15261.23920200897,0.5,4.073918894285669,298.15
15261.247535342303,0.5,4.073711019327025,298.15
15261.255868675637,0.5,4.073520535518606,298.15
15261.26420200897,0.5,4.073349498529254,298.15
15261.272535342305,0.5,4.073197252325,298.15
15261.280868675636,0.5,4.073059482855504,298.15
15261.28920200897,0.5,4.072924720100689,298.15
15261.297535342304,0.5,4.07278328064755,298.15
15261.305868675636,0.5,4.072627607776225,298.15
15261.314202008967,0.5,4.072450796775682,298.15
15261.322535342302,0.5,4.072249691510852,298.15
15261.330868675635,0.5,4.07203155603735,298.15
15261.33920200897,0.5,4.071806136571541,298.15
15261.347535342304,0.5,4.071582528915537,298.15
15261.355868675637,0.5,4.071368411787667,298.15
15261.36420200897,0.5,4.0711718444989735,298.15
15261.372535342303,0.5,4.070999604298796,298.15
15261.380868675637,0.5,4.070855360461188,298.15
15261.38920200897,0.5,4.070737296371895,298.15
15261.397535342305,0.5,4.070637526830108,298.15
15261.405868675636,0.5,4.070543101473493,298.15
15261.41420200897,0.5,4.070438050705121,298.15
15261.422535342304,0.5,4.070311138158932,298.15
15261.430868675636,0.5,4.070158234577803,298.15
15261.439202008967,0.5,4.069980635452061,298.15
15261.447535342302,0.5,4.069787169520048,298.15
15261.455868675635,0.5,4.069590513774996,298.15
15261.46420200897,0.5,4.069402756671045,298.15
15261.472535342304,0.5,4.0692271750810205,298.15
15261.480868675637,0.5,4.069060690362431,298.15
15261.48920200897,0.5,4.0688949405252135,298.15
15261.497535342303,0.5,4.068721187692194,298.15
15261.505868675637,0.5,4.06853152166801,298.15
15261.51420200897,0.5,4.068326098261188,298.15
15261.522535342305,0.5,4.06811136666504,298.15
15261.530868675636,0.5,4.067895319661333,298.15
15261.53920200897,0.5,4.067681255645537,298.15
15261.547535342304,0.5,4.067469967997596,298.15
15261.555868675636,0.5,4.067260301498819,298.15
15261.564202008967,0.5,4.067047709398799,298.15
15261.572535342302,0.5,4.0668259139478975,298.15
15261.580868675635,0.5,4.0665930788754014,298.15
15261.58920200897,0.5,4.066353252313508,298.15
15261.597535342304,0.5,4.0661109387344645,298.15
15261.605868675637,0.5,4.065869463455514,298.15
15261.61420200897,0.5,4.06562823026681,298.15
15261.622535342303,0.5,4.065385833210747,298.15
15261.630868675637,0.5,4.065136956727276,298.15
15261.63920200897,0.5,4.06487401053225,298.15
15261.647535342305,0.5,4.064591782728348,298.15
15261.655868675636,0.5,4.06429017016012,298.15
15261.66420200897,0.5,4.063968910807207,298.15
15261.672535342304,0.5,4.063634873079646,298.15
15261.680868675636,0.5,4.063300420195631,298.15
15261.689202008967,0.5,4.062974065314236,298.15
15261.697535342302,0.5,4.062660287925052,298.15
15261.705868675635,0.5,4.0623641909706025,298.15
15261.71420200897,0.5,4.062086345870698,298.15
15261.722535342304,0.5,4.061820933029944,298.15
15261.730868675637,0.5,4.061557519853414,298.15
15261.73920200897,0.5,4.061283262956998,298.15
15261.747535342303,0.5,4.060988487654639,298.15
15261.755868675637,0.5,4.060668359680515,298.15
15261.76420200897,0.5,4.0603222472993625,298.15
15261.772535342305,0.5,4.059954863816526,298.15
15261.780868675636,0.5,4.059571924426187,298.15
15261.78920200897,0.5,4.059177373412452,298.15
15261.797535342304,0.5,4.058776759289677,298.15
15261.805868675636,0.5,4.058375126915263,298.15
15261.814202008967,0.5,4.057971328458835,298.15
15261.822535342302,0.5,4.057563261622628,298.15
15261.830868675635,0.5,4.057150958426033,298.15
15261.83920200897,0.5,4.0567310242214845,298.15
15261.847535342304,0.5,4.056301054280178,298.15
15261.855868675637,0.5,4.055861648818032,298.15
15261.86420200897,0.5,4.055415871181484,298.15
15261.872535342303,0.5,4.054963729096967,298.15
15261.880868675637,0.5,4.054502855892363,298.15
15261.88920200897,0.5,4.054033011939973,298.15
15261.897535342305,0.5,4.053553955044193,298.15
15261.905868675636,0.5,4.053064297038423,298.15
15261.91420200897,0.5,4.052567771439088,298.15
15261.922535342304,0.5,4.052070424827013,298.15
15261.930868675636,0.5,4.051574102533872,298.15
15261.939202008967,0.5,4.051078252769562,298.15
15261.947535342302,0.5,4.050577071433708,298.15
15261.955868675635,0.5,4.050062389964749,298.15
15261.96420200897,0.5,4.049525914843096,298.15
15261.972535342304,0.5,4.048962131624592,298.15
15261.980868675637,0.5,4.048376052495067,298.15
15261.98920200897,0.5,4.047778050910616,298.15
15261.997535342303,0.5,4.047178330899003,298.15
15262.005868675637,0.5,4.046587903362996,298.15
15262.01420200897,0.5,4.046011244428513,298.15
15262.022535342305,0.5,4.045445243267985,298.15
15262.030868675636,0.5,4.044884703087268,298.15
15262.03920200897,0.5,4.044323454918178,298.15
15262.047535342304,0.5,4.043754357718738,298.15
15262.055868675636,0.5,4.043174340625585,298.15
15262.064202008967,0.5,4.042581283409704,298.15
15262.072535342302,0.5,4.04197244576743,298.15
15262.080868675635,0.5,4.041342709575149,298.15
15262.08920200897,0.5,4.040689928931081,298.15
15262.097535342304,0.5,4.04001843377984,298.15
15262.105868675637,0.5,4.039336399883316,298.15
15262.11420200897,0.5,4.038653827383645,298.15
15262.122535342303,0.5,4.037980323144632,298.15
15262.130868675637,0.5,4.037317795891536,298.15
15262.13920200897,0.5,4.036662467991387,298.15
15262.147535342305,0.5,4.036010592984795,298.15
15262.155868675636,0.5,4.035356567661953,298.15
15262.16420200897,0.5,4.034694278996257,298.15
15262.172535342304,0.5,4.0340222859503285,298.15
15262.180868675636,0.5,4.033340122033932,298.15
15262.189202008967,0.5,4.032643953848966,298.15
15262.197535342302,0.5,4.031934180093542,298.15
15262.205868675635,0.5,4.0312162072346975,298.15
15262.21420200897,0.5,4.0304939649876825,298.15
15262.222535342304,0.5,4.029769395169748,298.15
15262.230868675637,0.5,4.0290454648949865,298.15
15262.23920200897,0.5,4.028324854091835,298.15
15262.247535342303,0.5,4.027605769438461,298.15
15262.255868675637,0.5,4.026885378982501,298.15
15262.26420200897,0.5,4.026161983503249,298.15
15262.272535342305,0.5,4.025432845079057,298.15
15262.280868675636,0.5,4.024696748082207,298.15
15262.28920200897,0.5,4.023956362148515,298.15
15262.297535342304,0.5,4.023214570720668,298.15
15262.305868675636,0.5,4.022472697648109,298.15
15262.314202008967,0.5,4.021728604909973,298.15
15262.322535342302,0.5,4.02098159991325,298.15
15262.330868675635,0.5,4.02023086637632,298.15
15262.33920200897,0.5,4.0194815098516425,298.15
15262.347535342304,0.5,4.0187385073517685,298.15
15262.355868675637,0.5,4.018003510194195,298.15
15262.36420200897,0.5,4.0172736776707625,298.15
15262.372535342303,0.5,4.016541030825339,298.15
15262.380868675637,0.5,4.015795919066383,298.15
15262.38920200897,0.5,4.015033314568822,298.15
15262.397535342305,0.5,4.014255310746316,298.15
15262.405868675636,0.5,4.013466702202335,298.15
15262.41420200897,0.5,4.012673957107449,298.15
15262.422535342304,0.5,4.011882008451933,298.15
15262.430868675636,0.5,4.011093111769975,298.15
15262.439202008967,0.5,4.010308172509122,298.15
15262.447535342302,0.5,4.009524887600612,298.15
15262.455868675635,0.5,4.008745716579122,298.15
15262.46420200897,0.5,4.007974604048292,298.15
15262.472535342304,0.5,4.007210466015465,298.15
15262.480868675637,0.5,4.006453159507618,298.15
15262.48920200897,0.5,4.00569667669194,298.15
15262.497535342303,0.5,4.004932912855448,298.15
15262.505868675637,0.5,4.004155628032969,298.15
15262.51420200897,0.5,4.003361843604141,298.15
15262.522535342305,0.5,4.002551220422232,298.15
15262.530868675636,0.5,4.001730919177911,298.15
15262.53920200897,0.5,4.0009098023501695,298.15
15262.547535342304,0.5,4.000085471316881,298.15
15262.555868675636,0.5,3.999259861205151,298.15
15262.564202008967,0.5,3.998441555839101,298.15
15262.572535342302,0.5,3.9976308376558967,298.15
15262.580868675635,0.5,3.996823276137832,298.15
15262.58920200897,0.5,3.9960222785553543,298.15
15262.597535342304,0.5,3.995232041556714,298.15
15262.605868675637,0.5,3.994456754007084,298.15
15262.61420200897,0.5,3.993699526269082,298.15
15262.622535342303,0.5,3.9929592382102,298.15
15262.630868675637,0.5,3.992227161720729,298.15
15262.63920200897,0.5,3.9914926087179903,298.15
15262.647535342305,0.5,3.990742932694261,298.15
15262.655868675636,0.5,3.989970727388991,298.15
15262.66420200897,0.5,3.9891775830537,298.15
15262.672535342304,0.5,3.988372405693851,298.15
15262.680868675636,0.5,3.987557485631833,298.15
15262.689202008967,0.5,3.9867350287376784,298.15
15262.697535342302,0.5,3.98590944989078,298.15
15262.705868675635,0.5,3.985084326752332,298.15
15262.71420200897,0.5,3.984268639523493,298.15
15262.722535342304,0.5,3.9834671329613656,298.15
15262.730868675637,0.5,3.982674925838123,298.15
15262.73920200897,0.5,3.98189652353879,298.15
15262.747535342303,0.5,3.981143521090745,298.15
15262.755868675637,0.5,3.980413444065914,298.15
