Time,Current,Terminal Voltage,Ambient Temperature
918.4699923245688,-2.5,4.190929323393302,298.15
918.478325657902,-2.5,4.192476097872398,298.15
918.4866589912356,-2.5,4.193732713683781,298.15
918.4949923245688,-2.5,4.195084721267676,298.15
918.503325657902,-2.5,4.196378178596435,298.15
918.5116589912354,-2.5,4.197364580691686,298.15
918.5199923245688,-2.5,4.198728901330027,298.15
918.528325657902,-2.5,4.199861287761332,298.15
918.5294632912148,-2.5,4.199989999999998,298.15
918.529463291215,-2.5003662878298782,4.199999999999999,298.15
918.5377966245482,-2.4643340557791458,4.199999999999999,298.15
918.5461299578816,-2.420474288771135,4.199999999999999,298.15
918.5544632912148,-2.394493863446603,4.199999999999999,298.15
918.562796624548,-2.360040132248457,4.199999999999999,298.15
918.5711299578816,-2.3177644225254177,4.2,298.15
918.5794632912148,-2.276557010055012,4.200000000000001,298.15
918.587796624548,-2.2321808806946493,4.199999999999999,298.15
918.5961299578814,-2.184519068787857,4.199999999999999,298.15
918.6044632912148,-2.137977950711844,4.2,298.15
918.612796624548,-2.0932818408941416,4.199999999999999,298.15
918.6211299578814,-2.0425239421498045,4.2,298.15
918.6294632912148,-1.992102927460411,4.199999999999999,298.15
918.637796624548,-1.9449084482235917,4.200000000000001,298.15
918.6461299578816,-1.8956368835196635,4.199999999999999,298.15
918.6544632912148,-1.8447178639382156,4.2,298.15
918.6627966245482,-1.7934122381563435,4.200000000000001,298.15
918.6711299578816,-1.7430664693975473,4.199999999999999,298.15
918.6794632912148,-1.695620519922152,4.199999999999999,298.15
918.687796624548,-1.6498629038540968,4.199999999999999,298.15
918.6961299578816,-1.6049389122548483,4.199999999999999,298.15
918.7044632912148,-1.559286721176194,4.2,298.15
918.712796624548,-1.5136519695868702,4.2,298.15
918.7211299578814,-1.4704642013923277,4.199999999999999,298.15
918.7294632912148,-1.4296129912113291,4.199999999999995,298.15
918.737796624548,-1.389729920125848,4.199999999999998,298.15
918.7461299578814,-1.350293857745454,4.200000000000003,298.15
918.7544632912148,-1.311912835359501,4.2,298.15
918.762796624548,-1.2744543775901749,4.2,298.15
918.7711299578816,-1.2368828443532045,4.2,298.15
918.7794632912148,-1.2001132656631597,4.2,298.15
918.7877966245482,-1.1652243446662338,4.199999999999999,298.15
918.7961299578816,-1.1320856926367493,4.2,298.15
918.8044632912148,-1.0995032425016649,4.200000000000001,298.15
918.812796624548,-1.0673701644773568,4.2,298.15
918.8211299578816,-1.0373289567343889,4.199999999999999,298.15
918.8294632912148,-1.0093910925132832,4.199999999999999,298.15
918.837796624548,-0.9820380429047136,4.199999999999999,298.15
918.8461299578814,-0.9539372639087186,4.199999999999999,298.15
918.8544632912148,-0.9257456046529412,4.199999999999999,298.15
918.862796624548,-0.8983753645348364,4.199999999999999,298.15
918.8711299578814,-0.8720158947293821,4.199999999999999,298.15
918.8794632912148,-0.8472280480785623,4.2,298.15
918.887796624548,-0.8244287390779896,4.2,298.15
918.8961299578816,-0.8028810511605894,4.199999999999999,298.15
918.9044632912148,-0.7814676060929171,4.200000000000001,298.15
918.9127966245482,-0.7592793565578287,4.199999999999999,298.15
918.9211299578816,-0.7369026683917586,4.200000000000001,298.15
918.9294632912148,-0.7150283073522935,4.2,298.15
918.937796624548,-0.6942560608943258,4.199999999999999,298.15
918.9461299578816,-0.6747429646295333,4.199999999999999,298.15
918.9544632912148,-0.6564955473215507,4.199999999999999,298.15
918.962796624548,-0.6391496171374972,4.199999999999999,298.15
918.9711299578814,-0.6221836351190432,4.2,298.15
918.9794632912148,-0.6052157217366967,4.2,298.15
918.987796624548,-0.5883105694339197,4.199999999999999,298.15
918.9961299578814,-0.5717248975890292,4.199999999999999,298.15
919.0044632912148,-0.5556002021095477,4.200000000000001,298.15
919.012796624548,-0.5401280666446762,4.199999999999999,298.15
919.0211299578816,-0.525525026343637,4.200000000000001,298.15
919.0294632912148,-0.5118258245089126,4.199999999999999,298.15
919.0377966245482,-0.498812229781017,4.199999999999999,298.15
919.0461299578816,-0.4861740975283759,4.200000000000001,298.15
919.0544632912148,-0.4736385286274576,4.199999999999998,298.15
919.062796624548,-0.4608706692614985,4.199999999999999,298.15
919.0711299578816,-0.4477474443570356,4.199999999999998,298.15
919.0794632912148,-0.4344420824839498,4.199999999999999,298.15
919.087796624548,-0.4212673119062365,4.199999999999998,298.15
919.0961299578814,-0.4085296164167382,4.199999999999999,298.15
919.1044632912148,-0.3965023175437432,4.199999999999998,298.15
919.112796624548,-0.385287814407998,4.2,298.15
919.1211299578814,-0.374801010981814,4.199999999999999,298.15
919.1294632912148,-0.3648840468093939,4.200000000000001,298.15
919.137796624548,-0.3553876567582097,4.199999999999999,298.15
919.1461299578816,-0.3461750050187323,4.2,298.15
919.1544632912148,-0.3371737646247744,4.2,298.15
919.1627966245482,-0.3283138800756979,4.199999999999999,298.15
919.1711299578816,-0.3195624745887296,4.199999999999999,298.15
919.1794632912148,-0.3109442151612194,4.199999999999999,298.15
919.187796624548,-0.3024703425459746,4.199999999999999,298.15
919.1961299578816,-0.2941785121765964,4.2,298.15
919.2044632912148,-0.2860965550080525,4.199999999999999,298.15
919.212796624548,-0.2782587207195119,4.200000000000001,298.15
919.2211299578814,-0.2706820338140688,4.199999999999999,298.15
919.2294632912148,-0.263374577865685,4.200000000000001,298.15
919.237796624548,-0.2563268217298203,4.199999999999999,298.15
919.2461299578814,-0.2495120990426837,4.199999999999999,298.15
919.2544632912148,-0.2429101142104476,4.199999999999999,298.15
919.262796624548,-0.2364954389215707,4.199999999999999,298.15
919.2711299578816,-0.2302562176870411,4.199999999999999,298.15
919.2794632912148,-0.2241658828998284,4.199999999999999,298.15
919.2877966245482,-0.2182130853561872,4.199999999999999,298.15
919.2961299578816,-0.2123827503814769,4.199999999999999,298.15
919.3044632912148,-0.2066863042154633,4.199999999999999,298.15
919.312796624548,-0.2011380954819076,4.200000000000001,298.15
919.3211299578816,-0.1957473186294528,4.199999999999999,298.15
919.3294632912148,-0.1905088580076129,4.200000000000001,298.15
919.337796624548,-0.1854323663159241,4.199999999999999,298.15
919.3461299578814,-0.1804831773583827,4.199999999999999,298.15
919.3544632912148,-0.1756670732068812,4.199999999999999,298.15
919.362796624548,-0.1709887164837756,4.200000000000001,298.15
919.3706364209994,-0.1667166666666939,4.199999999999999,298.15
919.3706364209996,0.5,4.16945126719288,298.15
919.3789697543328,0.5,4.156354120180981,298.15
919.387303087666,0.5,4.150222908246177,298.15
919.3956364209994,0.5,4.145948756456998,298.15
919.4039697543328,0.5,4.14254212861556,298.15
919.412303087666,0.5,4.139628100236674,298.15
919.4206364209994,0.5,4.137032486216404,298.15
919.4289697543328,0.5,4.134658311657336,298.15
919.437303087666,0.5,4.132454991913454,298.15
919.4456364209994,0.5,4.130391277492096,298.15
919.4539697543328,0.5,4.128445852274581,298.15
919.462303087666,0.5,4.126606091578864,298.15
919.4706364209994,0.5,4.124864598968997,298.15
919.4789697543328,0.5,4.123212857121566,298.15
919.487303087666,0.5,4.121641301718013,298.15
919.4956364209994,0.5,4.12013202472219,298.15
919.5039697543328,0.5,4.118679365314499,298.15
919.512303087666,0.5,4.117279595152427,298.15
919.5206364209994,0.5,4.115927291362132,298.15
919.5289697543328,0.5,4.114616811170241,298.15
919.537303087666,0.5,4.113343396849444,298.15
919.5456364209994,0.5,4.112103196208061,298.15
919.5539697543328,0.5,4.110889490881077,298.15
919.562303087666,0.5,4.109690155407324,298.15
919.5706364209994,0.5,4.108498022863682,298.15
919.5789697543328,0.5,4.107321230858972,298.15
919.587303087666,0.5,4.106168780199008,298.15
919.5956364209994,0.5,4.105047538645101,298.15
919.6039697543328,0.5,4.103968999704555,298.15
919.612303087666,0.5,4.102941247587552,298.15
919.6206364209994,0.5,4.101965333658965,298.15
919.6289697543328,0.5,4.101036618958805,298.15
919.637303087666,0.5,4.100138809998233,298.15
919.6456364209994,0.5,4.099261379405755,298.15
919.6539697543328,0.5,4.098404079088052,298.15
919.662303087666,0.5,4.097564841818578,298.15
919.6706364209994,0.5,4.096741203226987,298.15
919.6789697543328,0.5,4.09593128499122,298.15
919.687303087666,0.5,4.095140397384007,298.15
919.6956364209994,0.5,4.094375650315368,298.15
919.7039697543328,0.5,4.093637653878209,298.15
919.712303087666,0.5,4.092916413131965,298.15
919.7206364209994,0.5,4.092204434207618,298.15
919.7289697543328,0.5,4.091507188722919,298.15
919.737303087666,0.5,4.090825584773647,298.15
919.7456364209994,0.5,4.09016542733788,298.15
919.7539697543328,0.5,4.089533847031903,298.15
919.762303087666,0.5,4.088929160863804,298.15
919.7706364209994,0.5,4.088344311348044,298.15
919.7789697543328,0.5,4.087772469258638,298.15
919.787303087666,0.5,4.087206753679462,298.15
919.7956364209994,0.5,4.08663005373686,298.15
919.8039697543328,0.5,4.086040566009988,298.15
919.812303087666,0.5,4.085449134602726,298.15
919.8206364209994,0.5,4.084867256223458,298.15
919.8289697543328,0.5,4.084308353884478,298.15
919.837303087666,0.5,4.083780062039789,298.15
919.8456364209994,0.5,4.08328391239974,298.15
919.8539697543328,0.5,4.082816451983177,298.15
919.862303087666,0.5,4.08236964623849,298.15
919.8706364209994,0.5,4.081937285507939,298.15
919.8789697543328,0.5,4.081521063041821,298.15
919.887303087666,0.5,4.081127145885647,298.15
919.8956364209994,0.5,4.08075989959214,298.15
919.9039697543328,0.5,4.080419366492343,298.15
919.912303087666,0.5,4.080098133649719,298.15
919.9206364209994,0.5,4.079785540368574,298.15
919.9289697543328,0.5,4.079468515826943,298.15
919.937303087666,0.5,4.079134022927411,298.15
919.9456364209994,0.5,4.078779458181629,298.15
919.9539697543328,0.5,4.0784113490512,298.15
919.962303087666,0.5,4.0780402362493415,298.15
919.9706364209994,0.5,4.077680912429605,298.15
919.9789697543328,0.5,4.077350423580572,298.15
919.987303087666,0.5,4.077055070757256,298.15
919.9956364209994,0.5,4.076795319990479,298.15
920.0039697543328,0.5,4.076565518579736,298.15
920.012303087666,0.5,4.076353389548968,298.15
920.0206364209994,0.5,4.076146586227466,298.15
920.0289697543328,0.5,4.075943723978854,298.15
920.037303087666,0.5,4.07574435855134,298.15
920.0456364209994,0.5,4.075542905379272,298.15
920.0539697543328,0.5,4.07533677490938,298.15
920.062303087666,0.5,4.0751312949239065,298.15
920.0706364209994,0.5,4.074929095985442,298.15
920.0789697543328,0.5,4.074725101301153,298.15
920.087303087666,0.5,4.074515851032302,298.15
920.0956364209994,0.5,4.074300274358073,298.15
920.1039697543328,0.5,4.074081448166412,298.15
920.112303087666,0.5,4.073864029243348,298.15
920.1206364209994,0.5,4.073655766209344,298.15
920.1289697543328,0.5,4.07346321617427,298.15
920.137303087666,0.5,4.073287423382976,298.15
920.1456364209994,0.5,4.073126001299786,298.15
920.1539697543328,0.5,4.07297790114704,298.15
920.162303087666,0.5,4.072839322747122,298.15
920.1706364209994,0.5,4.072707489310092,298.15
920.1789697543328,0.5,4.072575328760284,298.15
920.187303087666,0.5,4.072434414624167,298.15
920.1956364209994,0.5,4.072282389696579,298.15
920.2039697543328,0.5,4.072124831647965,298.15
920.212303087666,0.5,4.071964993770483,298.15
920.2206364209994,0.5,4.071802676732743,298.15
920.2289697543328,0.5,4.071641610529747,298.15
920.237303087666,0.5,4.071485176460634,298.15
920.2456364209994,0.5,4.071334985671623,298.15
920.2539697543328,0.5,4.071192748324659,298.15
920.262303087666,0.5,4.071060209959338,298.15
920.2706364209994,0.5,4.070934784026221,298.15
920.2789697543328,0.5,4.070809423853936,298.15
920.287303087666,0.5,4.070676576320147,298.15
920.2956364209994,0.5,4.070534907264278,298.15
920.3039697543328,0.5,4.070382457224922,298.15
920.312303087666,0.5,4.070217288490524,298.15
920.3206364209994,0.5,4.070041886765067,298.15
920.3289697543328,0.5,4.0698613310947565,298.15
920.337303087666,0.5,4.069676953127773,298.15
920.3456364209994,0.5,4.0694873927664,298.15
920.3539697543328,0.5,4.069288980475352,298.15
920.362303087666,0.5,4.069080098761207,298.15
920.3706364209994,0.5,4.068861335863073,298.15
920.3789697543328,0.5,4.06864265250214,298.15
920.387303087666,0.5,4.06843105350721,298.15
920.3956364209994,0.5,4.068232940918885,298.15
920.4039697543328,0.5,4.068051595750903,298.15
920.412303087666,0.5,4.067881871162982,298.15
920.4206364209994,0.5,4.067710655651718,298.15
920.4289697543328,0.5,4.067527159724346,298.15
920.437303087666,0.5,4.067321511648236,298.15
920.4456364209994,0.5,4.067086040307391,298.15
920.4539697543328,0.5,4.066818511869676,298.15
920.462303087666,0.5,4.066524726458497,298.15
920.4706364209994,0.5,4.066213748987732,298.15
920.4789697543328,0.5,4.065892168214061,298.15
920.487303087666,0.5,4.0655657209998965,298.15
920.4956364209994,0.5,4.065242138265106,298.15
920.5039697543328,0.5,4.064924182347833,298.15
920.512303087666,0.5,4.064613531766755,298.15
920.5206364209994,0.5,4.0643099650726535,298.15
920.5289697543328,0.5,4.064014764847341,298.15
920.537303087666,0.5,4.063722258777199,298.15
920.5456364209994,0.5,4.0634226439836585,298.15
920.5539697543328,0.5,4.063108731667889,298.15
920.562303087666,0.5,4.062776493801526,298.15
920.5706364209994,0.5,4.062424966622137,298.15
920.5789697543328,0.5,4.062058956676742,298.15
920.587303087666,0.5,4.061688316529519,298.15
920.5956364209994,0.5,4.061320181667346,298.15
920.6039697543328,0.5,4.060953178009289,298.15
920.612303087666,0.5,4.06058431019046,298.15
920.6206364209994,0.5,4.060208577113098,298.15
920.6289697543328,0.5,4.059821562349373,298.15
920.637303087666,0.5,4.059424011803132,298.15
920.6456364209994,0.5,4.059019654017396,298.15
920.6539697543328,0.5,4.058608941686433,298.15
920.662303087666,0.5,4.058187047828225,298.15
920.6706364209994,0.5,4.057748868999687,298.15
920.6789697543328,0.5,4.05728920205608,298.15
920.687303087666,0.5,4.0568088945298415,298.15
920.6956364209994,0.5,4.056313704172474,298.15
920.7039697543328,0.5,4.055813442502871,298.15
920.712303087666,0.5,4.055314590955957,298.15
920.7206364209994,0.5,4.054818423946025,298.15
920.7289697543328,0.5,4.054323600583624,298.15
920.737303087666,0.5,4.053824761096115,298.15
920.7456364209994,0.5,4.053317401089462,298.15
920.7539697543328,0.5,4.052804196958133,298.15
920.762303087666,0.5,4.052285838039575,298.15
920.7706364209994,0.5,4.051758687479904,298.15
920.7789697543328,0.5,4.051219572075581,298.15
920.787303087666,0.5,4.050665695019811,298.15
920.7956364209994,0.5,4.0500935770149535,298.15
920.8039697543328,0.5,4.049507569560875,298.15
920.812303087666,0.5,4.048914761525479,298.15
920.8206364209994,0.5,4.048321207023172,298.15
920.8289697543328,0.5,4.047731799748435,298.15
920.837303087666,0.5,4.047150823971007,298.15
920.8456364209994,0.5,4.04657967386272,298.15
920.8539697543328,0.5,4.04601636846386,298.15
920.862303087666,0.5,4.045457935916669,298.15
920.8706364209994,0.5,4.044901089937247,298.15
920.8789697543328,0.5,4.044341165896116,298.15
920.887303087666,0.5,4.04377670405811,298.15
920.8956364209994,0.5,4.043203959491237,298.15
920.9039697543328,0.5,4.042616285383458,298.15
920.912303087666,0.5,4.0420089037172975,298.15
920.9206364209994,0.5,4.041382041339305,298.15
920.9289697543328,0.5,4.040738120791185,298.15
920.937303087666,0.5,4.040081173043658,298.15
920.9456364209994,0.5,4.039415734585271,298.15
920.9539697543328,0.5,4.038743985477218,298.15
920.962303087666,0.5,4.038066594157057,298.15
920.9706364209994,0.5,4.037385317457717,298.15
920.9789697543328,0.5,4.036704162894001,298.15
920.987303087666,0.5,4.03602452233509,298.15
920.9956364209994,0.5,4.035343955794968,298.15
921.0039697543328,0.5,4.034660505115303,298.15
921.012303087666,0.5,4.03397186305009,298.15
921.0206364209994,0.5,4.03327624677863,298.15
921.0289697543328,0.5,4.032574937610715,298.15
921.037303087666,0.5,4.031867908362221,298.15
921.0456364209994,0.5,4.031154512925891,298.15
921.0539697543328,0.5,4.030437856001166,298.15
921.062303087666,0.5,4.029720998585894,298.15
921.0706364209994,0.5,4.029002454070996,298.15
921.0789697543328,0.5,4.028282465274055,298.15
921.087303087666,0.5,4.02755902316831,298.15
921.0956364209994,0.5,4.02682718835767,298.15
921.1039697543328,0.5,4.026086750234619,298.15
921.112303087666,0.5,4.02534107076054,298.15
921.1206364209994,0.5,4.024589703817514,298.15
921.1289697543328,0.5,4.023832632963924,298.15
921.137303087666,0.5,4.023070895216939,298.15
921.1456364209994,0.5,4.022305739126151,298.15
921.1539697543328,0.5,4.021541356382624,298.15
921.162303087666,0.5,4.020784899474837,298.15
921.1706364209994,0.5,4.020044485338133,298.15
921.1789697543328,0.5,4.019321842782077,298.15
921.187303087666,0.5,4.018610431710432,298.15
921.1956364209994,0.5,4.017901490076531,298.15
921.2039697543328,0.5,4.017186640849008,298.15
921.212303087666,0.5,4.01645871510442,298.15
921.2206364209994,0.5,4.015713193480419,298.15
921.2289697543328,0.5,4.014951956239981,298.15
921.237303087666,0.5,4.014180021938968,298.15
921.2456364209994,0.5,4.013402426595483,298.15
921.2539697543328,0.5,4.012622529993571,298.15
921.262303087666,0.5,4.0118447696014,298.15
921.2706364209994,0.5,4.01107282344723,298.15
921.2789697543328,0.5,4.010305807831112,298.15
921.287303087666,0.5,4.0095419711255005,298.15
921.2956364209994,0.5,4.008780760403543,298.15
921.3039697543328,0.5,4.008018177638178,298.15
921.312303087666,0.5,4.007249316368923,298.15
921.3206364209994,0.5,4.006471535131698,298.15
921.3289697543328,0.5,4.005686937837823,298.15
921.337303087666,0.5,4.004897951306373,298.15
921.3456364209994,0.5,4.004108634016921,298.15
921.3539697543328,0.5,4.003321377130718,298.15
921.362303087666,0.5,4.002537652021499,298.15
921.3706364209994,0.5,4.001761986400648,298.15
921.3789697543328,0.5,4.000993587293588,298.15
921.387303087666,0.5,4.000227522051571,298.15
921.3956364209994,0.5,3.999459048308471,298.15
921.4039697543328,0.5,3.998684624516173,298.15
921.412303087666,0.5,3.99790129845636,298.15
921.4206364209994,0.5,3.9971136795307887,298.15
921.4289697543328,0.5,3.996326694010622,298.15
921.437303087666,0.5,3.9955431188249406,298.15
921.4456364209994,0.5,3.994762560596055,298.15
921.4539697543328,0.5,3.9939873323091137,298.15
921.462303087666,0.5,3.993215548709189,298.15
921.4706364209994,0.5,3.9924434097557935,298.15
921.4789697543328,0.5,3.991670622418468,298.15
921.487303087666,0.5,3.9908968979591872,298.15
921.4956364209994,0.5,3.99012103975822,298.15
921.5039697543328,0.5,3.989347181556356,298.15
921.512303087666,0.5,3.988579267378106,298.15
921.5206364209994,0.5,3.987816437067028,298.15
921.5289697543328,0.5,3.9870555293271326,298.15
921.537303087666,0.5,3.9862914872330726,298.15
921.5456364209994,0.5,3.98551729538552,298.15
921.5539697543328,0.5,3.984727484764088,298.15
921.562303087666,0.5,3.983920845992311,298.15
921.5706364209994,0.5,3.983100271688329,298.15
921.5789697543328,0.5,3.9822721879580847,298.15
921.587303087666,0.5,3.9814468647504384,298.15
921.5956364209994,0.5,3.980637643617903,298.15
921.6039697543328,0.5,3.97985292168782,298.15
921.612303087666,0.5,3.979097153278762,298.15
921.6206364209994,0.5,3.978370808318964,298.15
921.6289697543328,0.5,3.977662246501602,298.15
921.637303087666,0.5,3.976955431830268,298.15
921.6456364209994,0.5,3.976234718582036,298.15
921.6539697543328,0.5,3.9754874763950063,298.15
921.662303087666,0.5,3.974709719965075,298.15
921.6706364209994,0.5,3.973907045261636,298.15
921.6789697543328,0.5,3.973087950916025,298.15
921.687303087666,0.5,3.972259101952144,298.15
921.6956364209994,0.5,3.9714250866143033,298.15
921.7039697543328,0.5,3.970586644685256,298.15
921.712303087666,0.5,3.969752097311264,298.15
921.7206364209994,0.5,3.9689352378724223,298.15
921.7289697543328,0.5,3.9681453605937063,298.15
921.737303087666,0.5,3.967390371707476,298.15
921.7456364209994,0.5,3.9666752169715513,298.15
921.7539697543328,0.5,3.9659990318686127,298.15
921.762303087666,0.5,3.965343386668918,298.15
