Time,Current,Terminal Voltage,Ambient Temperature
765.2953416724998,-2.5,4.1904055473037225,298.15
765.3036750058332,-2.5,4.191934140468113,298.15
765.3120083391665,-2.5,4.193160736081983,298.15
765.3203416724998,-2.5,4.194603080043807,298.15
765.3286750058331,-2.5,4.195791813153984,298.15
765.3370083391665,-2.5,4.1968409650081,298.15
765.3453416724999,-2.5,4.198190580398986,298.15
765.3536750058332,-2.5,4.1992758030625215,298.15
765.3591965534549,-2.5,4.1999899999999855,298.15
765.3591965534553,-2.500369103682673,4.199999999999999,298.15
765.3675298867882,-2.4528654870562767,4.200000000000001,298.15
765.3758632201217,-2.420551872290964,4.199999999999999,298.15
765.384196553455,-2.3910548904117817,4.200000000000001,298.15
765.3925298867883,-2.3469082960314207,4.200000000000001,298.15
765.4008632201217,-2.3042118067986506,4.199999999999998,298.15
765.409196553455,-2.261476450842463,4.199999999999999,298.15
765.4175298867883,-2.212491690969776,4.200000000000001,298.15
765.4258632201216,-2.165548267019311,4.2,298.15
765.434196553455,-2.120271248007992,4.200000000000001,298.15
765.4425298867883,-2.0701269279209304,4.199999999999999,298.15
765.4508632201216,-2.0179953565168187,4.199999999999999,298.15
765.459196553455,-1.970769611180473,4.199999999999999,298.15
765.4675298867883,-1.9209448546877232,4.2,298.15
765.4758632201216,-1.8678406916393289,4.199999999999999,298.15
765.4841965534549,-1.8166227651836933,4.199999999999999,298.15
765.4925298867882,-1.7662498905614203,4.199999999999998,298.15
765.5008632201217,-1.7177948596514825,4.199999999999999,298.15
765.509196553455,-1.6709260074676258,4.2,298.15
765.5175298867883,-1.6248351244493708,4.199999999999999,298.15
765.5258632201217,-1.5788252533310396,4.199999999999999,298.15
765.534196553455,-1.5325540180895565,4.199999999999999,298.15
765.5425298867883,-1.4886557329242214,4.200000000000001,298.15
765.5508632201216,-1.447277256270232,4.2,298.15
765.559196553455,-1.4064781260390586,4.199999999999999,298.15
765.5675298867883,-1.3661341305957106,4.199999999999999,298.15
765.5758632201216,-1.327499795192841,4.200000000000001,298.15
765.584196553455,-1.289888095154569,4.200000000000001,298.15
765.5925298867883,-1.251284567355716,4.200000000000001,298.15
765.6008632201216,-1.2130360890421497,4.2,298.15
765.6091965534549,-1.177275614349406,4.2,298.15
765.6175298867882,-1.144050099535,4.200000000000001,298.15
765.6258632201217,-1.111734785478963,4.199999999999999,298.15
765.634196553455,-1.0798956234116868,4.200000000000001,298.15
765.6425298867883,-1.0497148109693268,4.1999999999999975,298.15
765.6508632201217,-1.0207323974295566,4.2,298.15
765.659196553455,-0.9918472653083154,4.200000000000001,298.15
765.6675298867883,-0.9628072020366176,4.2,298.15
765.6758632201216,-0.9344927892094874,4.200000000000001,298.15
765.684196553455,-0.9072900379059128,4.199999999999999,298.15
765.6925298867883,-0.8810943455271305,4.200000000000001,298.15
765.7008632201216,-0.8564771834075163,4.200000000000001,298.15
765.709196553455,-0.8336504957514655,4.2,298.15
765.7175298867883,-0.8116077607358125,4.199999999999999,298.15
765.7258632201216,-0.7891850322803596,4.2,298.15
765.7341965534549,-0.7660238431303532,4.2,298.15
765.7425298867882,-0.7431155073062048,4.199999999999998,298.15
765.7508632201217,-0.7211630741346565,4.200000000000001,298.15
765.759196553455,-0.7005013373396749,4.200000000000001,298.15
765.7675298867883,-0.6811059195741788,4.199999999999999,298.15
765.7758632201217,-0.6629179440307578,4.200000000000001,298.15
765.784196553455,-0.6454983037895983,4.199999999999999,298.15
765.7925298867883,-0.6283205985958367,4.199999999999999,298.15
765.8008632201216,-0.6110303880038828,4.1999999999999975,298.15
765.809196553455,-0.5937782251282118,4.200000000000001,298.15
765.8175298867883,-0.5768418473791075,4.199999999999999,298.15
765.8258632201216,-0.5604767714492469,4.199999999999999,298.15
765.834196553455,-0.5449658163061624,4.2,298.15
765.8425298867883,-0.5305503464916174,4.199999999999999,298.15
765.8508632201216,-0.5170977520457234,4.1999999999999975,298.15
765.8591965534549,-0.5041520972475043,4.199999999999999,298.15
765.8675298867882,-0.4912734629934346,4.199999999999999,298.15
765.8758632201217,-0.478077551643304,4.200000000000001,298.15
765.884196553455,-0.4643587051353447,4.2,298.15
765.8925298867883,-0.4503500923309527,4.1999999999999975,298.15
765.9008632201217,-0.4364801670033484,4.199999999999999,298.15
765.909196553455,-0.4231434015106227,4.199999999999999,298.15
765.9175298867883,-0.4106009450912169,4.200000000000001,298.15
765.9258632201216,-0.398971888695159,4.2,298.15
765.934196553455,-0.388174236457263,4.2,298.15
765.9425298867883,-0.3780055214873462,4.199999999999999,298.15
765.9508632201216,-0.3682619120330862,4.200000000000001,298.15
765.959196553455,-0.3587937004037892,4.2,298.15
765.9675298867883,-0.3495004406597828,4.200000000000001,298.15
765.9758632201216,-0.3403335086549047,4.199999999999999,298.15
765.9841965534549,-0.3312483757015466,4.199999999999999,298.15
765.9925298867882,-0.3222637879766443,4.199999999999999,298.15
766.0008632201217,-0.3134204319588051,4.200000000000001,298.15
766.009196553455,-0.3047664262950776,4.200000000000001,298.15
766.0175298867883,-0.2963077915874659,4.2,298.15
766.0258632201217,-0.2881018523192035,4.199999999999999,298.15
766.034196553455,-0.2801768367206487,4.199999999999999,298.15
766.0425298867883,-0.2725479187212974,4.2,298.15
766.0508632201216,-0.2652069133270253,4.199999999999999,298.15
766.059196553455,-0.258128098205889,4.199999999999999,298.15
766.0675298867883,-0.2512829078696928,4.2,298.15
766.0758632201216,-0.2446471916462212,4.200000000000001,298.15
766.084196553455,-0.238197085562786,4.199999999999998,298.15
766.0925298867883,-0.231906581071191,4.199999999999999,298.15
766.1008632201216,-0.2257553913509812,4.200000000000001,298.15
766.1091965534549,-0.2197301766586805,4.200000000000001,298.15
766.1175298867882,-0.2138418410477121,4.200000000000001,298.15
766.1258632201217,-0.2081070733572061,4.200000000000001,298.15
766.134196553455,-0.202533071229523,4.2,298.15
766.1425298867883,-0.1971153065528487,4.200000000000001,298.15
766.1508632201217,-0.1918457629307338,4.199999999999999,298.15
766.159196553455,-0.186718194077306,4.200000000000001,298.15
766.1675298867883,-0.1817373968472293,4.200000000000001,298.15
766.1758632201216,-0.1768935070945093,4.200000000000001,298.15
766.184196553455,-0.1721874610528127,4.199999999999999,298.15
766.1925298867883,-0.1676156226451013,4.200000000000001,298.15
766.1941986386488,-0.1667166666666857,4.2,298.15
766.1941986386491,0.5,4.169535910559853,298.15
766.2025319719821,0.5,4.156445693850497,298.15
766.2108653053155,0.5,4.15032484742849,298.15
766.2191986386488,0.5,4.146058416083488,298.15
766.2275319719822,0.5,4.142656910394367,298.15
766.2358653053155,0.5,4.139747827379171,298.15
766.2441986386489,0.5,4.137157189253021,298.15
766.2525319719822,0.5,4.134788161651759,298.15
766.2608653053155,0.5,4.132586999639199,298.15
766.2691986386488,0.5,4.130523413651945,298.15
766.2775319719822,0.5,4.128576500510958,298.15
766.2858653053155,0.5,4.126731069942691,298.15
766.2941986386488,0.5,4.1249787343836,298.15
766.3025319719821,0.5,4.123314155598869,298.15
766.3108653053155,0.5,4.121731203296859,298.15
766.3191986386488,0.5,4.120214532213623,298.15
766.3275319719821,0.5,4.118754679475846,298.15
766.3358653053155,0.5,4.117349439188638,298.15
766.3441986386488,0.5,4.115996643941564,298.15
766.3525319719822,0.5,4.114691218539604,298.15
766.3608653053155,0.5,4.113429023042456,298.15
766.3691986386489,0.5,4.112206262262465,298.15
766.3775319719822,0.5,4.111016990630361,298.15
766.3858653053155,0.5,4.109850910051978,298.15
766.3941986386488,0.5,4.108690722572825,298.15
766.4025319719822,0.5,4.107536238456765,298.15
766.4108653053155,0.5,4.106393335829625,298.15
766.4191986386488,0.5,4.105268655633683,298.15
766.4275319719821,0.5,4.104172593424938,298.15
766.4358653053155,0.5,4.103114954823209,298.15
766.4441986386488,0.5,4.102101370011443,298.15
766.4525319719821,0.5,4.101133742461927,298.15
766.4608653053155,0.5,4.100205862124383,298.15
766.4691986386488,0.5,4.099305884362645,298.15
766.4775319719822,0.5,4.09843477517366,298.15
766.4858653053155,0.5,4.0975943393052425,298.15
766.4941986386489,0.5,4.096783046592536,298.15
766.5025319719822,0.5,4.095993692266401,298.15
766.5108653053155,0.5,4.095219482235248,298.15
766.5191986386488,0.5,4.094463922691947,298.15
766.5275319719822,0.5,4.093730304657814,298.15
766.5358653053155,0.5,4.093012248620723,298.15
766.5441986386488,0.5,4.092297945626068,298.15
766.5525319719821,0.5,4.091594060388955,298.15
766.5608653053155,0.5,4.090906178823749,298.15
766.5691986386488,0.5,4.090239528925223,298.15
766.5775319719821,0.5,4.089602251573236,298.15
766.5858653053155,0.5,4.088996126278456,298.15
766.5941986386488,0.5,4.088416189124986,298.15
766.6025319719822,0.5,4.08785414719561,298.15
766.6108653053155,0.5,4.087302023015766,298.15
766.6191986386489,0.5,4.086743853041698,298.15
766.6275319719822,0.5,4.086174173748965,298.15
766.6358653053155,0.5,4.0856010884516,298.15
766.6441986386488,0.5,4.085033963107106,298.15
766.6525319719822,0.5,4.084481396963566,298.15
766.6608653053155,0.5,4.083950072529031,298.15
766.6691986386488,0.5,4.0834412036417005,298.15
766.6775319719821,0.5,4.082953169424007,298.15
766.6858653053155,0.5,4.0824807494978606,298.15
766.6941986386488,0.5,4.082020806397571,298.15
766.7025319719821,0.5,4.0815785415980335,298.15
766.7108653053155,0.5,4.081161819316417,298.15
766.7191986386488,0.5,4.080779824503242,298.15
766.7275319719822,0.5,4.080437170635429,298.15
766.7358653053155,0.5,4.080127808194375,298.15
766.7441986386489,0.5,4.079836537602631,298.15
766.7525319719822,0.5,4.079547823752134,298.15
766.7608653053155,0.5,4.079246073484905,298.15
766.7691986386488,0.5,4.0789232987487525,298.15
766.7775319719822,0.5,4.07858260400825,298.15
766.7858653053155,0.5,4.078230534354109,298.15
766.7941986386488,0.5,4.0778764856818,298.15
766.8025319719821,0.5,4.077535103298394,298.15
766.8108653053155,0.5,4.077217186143816,298.15
766.8191986386488,0.5,4.076924096064513,298.15
766.8275319719821,0.5,4.07665469285315,298.15
766.8358653053155,0.5,4.076404959294247,298.15
766.8441986386488,0.5,4.076169126696322,298.15
766.8525319719822,0.5,4.075947239333035,298.15
766.8608653053155,0.5,4.07574435433281,298.15
766.8691986386489,0.5,4.075559071732277,298.15
766.8775319719822,0.5,4.075383492003354,298.15
766.8858653053155,0.5,4.075209482168056,298.15
766.8941986386488,0.5,4.07503578476722,298.15
766.9025319719822,0.5,4.074858288420947,298.15
766.9108653053155,0.5,4.074671180977487,298.15
766.9191986386488,0.5,4.07447135801273,298.15
766.9275319719821,0.5,4.074260598926054,298.15
766.9358653053155,0.5,4.07404256243764,298.15
766.9441986386488,0.5,4.073823755767567,298.15
766.9525319719821,0.5,4.0736123244145865,298.15
766.9608653053155,0.5,4.073412287646979,298.15
766.9691986386488,0.5,4.073225100747808,298.15
766.9775319719822,0.5,4.073052746153177,298.15
766.9858653053155,0.5,4.072895424525116,298.15
766.9941986386489,0.5,4.072753479960599,298.15
767.0025319719822,0.5,4.072624414266071,298.15
767.0108653053155,0.5,4.072499240112403,298.15
767.0191986386488,0.5,4.072365802598274,298.15
767.0275319719822,0.5,4.072221588058167,298.15
767.0358653053155,0.5,4.072069085377099,298.15
767.0441986386488,0.5,4.071908279400269,298.15
767.0525319719821,0.5,4.071741172481897,298.15
767.0608653053155,0.5,4.071573401647561,298.15
767.0691986386488,0.5,4.071409037112595,298.15
767.0775319719821,0.5,4.071253742165471,298.15
767.0858653053155,0.5,4.071110810024944,298.15
767.0941986386488,0.5,4.070980856584071,298.15
767.1025319719822,0.5,4.070859566109755,298.15
767.1108653053155,0.5,4.0707373936916245,298.15
767.1191986386489,0.5,4.070607440174811,298.15
767.1275319719822,0.5,4.070467510508268,298.15
767.1358653053155,0.5,4.070315436289084,298.15
767.1441986386488,0.5,4.070151004490128,298.15
767.1525319719822,0.5,4.069976753703487,298.15
767.1608653053155,0.5,4.069795062617872,298.15
767.1691986386488,0.5,4.069604989174113,298.15
767.1775319719821,0.5,4.069403358065936,298.15
767.1858653053155,0.5,4.0691889590029255,298.15
767.1941986386488,0.5,4.068961633012229,298.15
767.2025319719821,0.5,4.0687298956758,298.15
767.2108653053155,0.5,4.068504564579401,298.15
767.2191986386488,0.5,4.068293166558498,298.15
767.2275319719822,0.5,4.068101117538468,298.15
767.2358653053155,0.5,4.067927882563136,298.15
767.2441986386489,0.5,4.067761877071107,298.15
767.2525319719822,0.5,4.067590782774371,298.15
767.2608653053155,0.5,4.067405037215352,298.15
767.2691986386488,0.5,4.067196598066774,298.15
767.2775319719822,0.5,4.066958933434789,298.15
767.2858653053155,0.5,4.066691148076756,298.15
767.2941986386488,0.5,4.06639690148165,298.15
767.3025319719821,0.5,4.066080830547897,298.15
767.3108653053155,0.5,4.065748028979121,298.15
767.3191986386488,0.5,4.065405892871546,298.15
767.3275319719821,0.5,4.065061611275528,298.15
767.3358653053155,0.5,4.064720984733336,298.15
767.3441986386488,0.5,4.064389027294784,298.15
767.3525319719822,0.5,4.064071011083117,298.15
767.3608653053155,0.5,4.063767791514058,298.15
767.3691986386489,0.5,4.063471442310377,298.15
767.3775319719822,0.5,4.063171316117147,298.15
767.3858653053155,0.5,4.062858088962802,298.15
767.3941986386488,0.5,4.062524951937699,298.15
767.4025319719822,0.5,4.062172296079875,298.15
767.4108653053155,0.5,4.061806377419648,298.15
767.4191986386488,0.5,4.0614349311723394,298.15
767.4275319719821,0.5,4.061062117026196,298.15
767.4358653053155,0.5,4.060687425965595,298.15
767.4441986386488,0.5,4.060307247667651,298.15
767.4525319719821,0.5,4.059917382135954,298.15
767.4608653053155,0.5,4.059517933723817,298.15
767.4691986386488,0.5,4.05911175604826,298.15
767.4775319719822,0.5,4.058700410648511,298.15
767.4858653053155,0.5,4.058281697295838,298.15
767.4941986386489,0.5,4.057850989601239,298.15
767.5025319719822,0.5,4.05740330820746,298.15
767.5108653053155,0.5,4.056934706698176,298.15
767.5191986386488,0.5,4.056449021740323,298.15
767.5275319719822,0.5,4.055953765989384,298.15
767.5358653053155,0.5,4.055455059603181,298.15
767.5441986386488,0.5,4.054955167295287,298.15
767.5525319719821,0.5,4.054453621829653,298.15
767.5608653053155,0.5,4.053947407934348,298.15
767.5691986386488,0.5,4.053431866332268,298.15
767.5775319719821,0.5,4.052910482550901,298.15
767.5858653053155,0.5,4.0523873709255405,298.15
767.5941986386488,0.5,4.051861452988193,298.15
767.6025319719822,0.5,4.051328589462061,298.15
767.6108653053155,0.5,4.05078498202505,298.15
767.6191986386489,0.5,4.050224676888919,298.15
767.6275319719822,0.5,4.049645835568122,298.15
767.6358653053155,0.5,4.049053420888855,298.15
767.6441986386488,0.5,4.04845274070073,298.15
767.6525319719822,0.5,4.047848360018854,298.15
767.6608653053155,0.5,4.047246291593316,298.15
767.6691986386488,0.5,4.046649851470357,298.15
767.6775319719821,0.5,4.04606162994145,298.15
767.6858653053155,0.5,4.045482718334261,298.15
767.6941986386488,0.5,4.044914372589471,298.15
767.7025319719821,0.5,4.044352899397907,298.15
767.7108653053155,0.5,4.043795512653327,298.15
767.7191986386488,0.5,4.043237576014048,298.15
767.7275319719822,0.5,4.042669411048337,298.15
767.7358653053155,0.5,4.042082035667109,298.15
767.7441986386489,0.5,4.041471645238625,298.15
767.7525319719822,0.5,4.04084054919019,298.15
767.7608653053155,0.5,4.040192857286149,298.15
767.7691986386488,0.5,4.039532396604752,298.15
767.7775319719822,0.5,4.038861880880534,298.15
767.7858653053155,0.5,4.038182546398099,298.15
767.7941986386488,0.5,4.037496114438049,298.15
767.8025319719821,0.5,4.036806634163681,298.15
767.8108653053155,0.5,4.036118267618535,298.15
767.8191986386488,0.5,4.035431868826061,298.15
767.8275319719821,0.5,4.034745322447361,298.15
767.8358653053155,0.5,4.034057450426243,298.15
767.8441986386488,0.5,4.0333645027632254,298.15
767.8525319719822,0.5,4.032666849898751,298.15
767.8608653053155,0.5,4.031963836160712,298.15
767.8691986386489,0.5,4.031253540634942,298.15
767.8775319719822,0.5,4.030536249395146,298.15
767.8858653053155,0.5,4.029816143525292,298.15
767.8941986386488,0.5,4.029093902871543,298.15
767.9025319719822,0.5,4.028370720085597,298.15
767.9108653053155,0.5,4.027647951145099,298.15
767.9191986386488,0.5,4.026921745136331,298.15
767.9275319719821,0.5,4.026190323219312,298.15
767.9358653053155,0.5,4.025455520750533,298.15
767.9441986386488,0.5,4.024716073990838,298.15
767.9525319719821,0.5,4.023969028797892,298.15
767.9608653053155,0.5,4.023212523566669,298.15
767.9691986386488,0.5,4.022445904392029,298.15
767.9775319719822,0.5,4.021671966126947,298.15
767.9858653053155,0.5,4.020898245052047,298.15
767.9941986386489,0.5,4.02013424689479,298.15
768.0025319719822,0.5,4.019389018076836,298.15
768.0108653053155,0.5,4.018662785336157,298.15
768.0191986386488,0.5,4.017949769732292,298.15
768.0275319719822,0.5,4.017241616161922,298.15
768.0358653053155,0.5,4.016529531714692,298.15
768.0441986386488,0.5,4.015804873879349,298.15
768.0525319719821,0.5,4.015062386586539,298.15
768.0608653053155,0.5,4.0143020611366085,298.15
768.0691986386488,0.5,4.013527953765619,298.15
768.0775319719821,0.5,4.012745043294402,298.15
768.0858653053155,0.5,4.011958350030715,298.15
768.0941986386488,0.5,4.011174359666967,298.15
768.1025319719822,0.5,4.010397490510739,298.15
768.1108653053155,0.5,4.009628716038865,298.15
768.1191986386489,0.5,4.008867814276115,298.15
768.1275319719822,0.5,4.008111498064133,298.15
768.1358653053155,0.5,4.007353726984603,298.15
768.1441986386488,0.5,4.006588407017231,298.15
768.1525319719822,0.5,4.005813087098389,298.15
768.1608653053155,0.5,4.00502857834259,298.15
768.1691986386488,0.5,4.004239453996405,298.15
768.1775319719821,0.5,4.003449310414264,298.15
768.1858653053155,0.5,4.002659755205064,298.15
768.1941986386488,0.5,4.001875477886017,298.15
768.2025319719821,0.5,4.00110003203896,298.15
768.2108653053155,0.5,4.000329500087875,298.15
768.2191986386488,0.5,3.999558521327084,298.15
768.2275319719822,0.5,3.998782413673793,298.15
768.2358653053155,0.5,3.9979981092237145,298.15
768.2441986386489,0.5,3.9972077082774806,298.15
768.2525319719822,0.5,3.996417810277496,298.15
768.2608653053155,0.5,3.9956334180820816,298.15
768.2691986386488,0.5,3.994855554774084,298.15
768.2775319719822,0.5,3.9940844360352137,298.15
768.2858653053155,0.5,3.993319023543288,298.15
768.2941986386488,0.5,3.992553353623798,298.15
768.3025319719821,0.5,3.991783619928452,298.15
768.3108653053155,0.5,3.9910085236887096,298.15
768.3191986386488,0.5,3.990226577402208,298.15
768.3275319719821,0.5,3.989440300836266,298.15
768.3358653053155,0.5,3.988658450017148,298.15
768.3441986386488,0.5,3.987886294939415,298.15
768.3525319719822,0.5,3.987126088554577,298.15
768.3608653053155,0.5,3.9863755885088503,298.15
768.3691986386489,0.5,3.985627381305816,298.15
768.3775319719822,0.5,3.9848705639613446,298.15
768.3858653053155,0.5,3.984094976153692,298.15
768.3941986386488,0.5,3.983295035580898,298.15
768.4025319719822,0.5,3.98247203133043,298.15
768.4108653053155,0.5,3.9816353775580686,298.15
768.4191986386488,0.5,3.980797162055592,298.15
768.4275319719821,0.5,3.979971056692988,298.15
768.4358653053155,0.5,3.9791696641414456,298.15
768.4441986386488,0.5,3.978403212157655,298.15
768.4525319719821,0.5,3.977674943923553,298.15
768.4608653053155,0.5,3.976976139302199,298.15
768.4691986386488,0.5,3.9762899338096167,298.15
768.4775319719822,0.5,3.9755941914103854,298.15
768.4858653053155,0.5,3.9748706490697794,298.15
768.4941986386489,0.5,3.9741114599859095,298.15
768.5025319719822,0.5,3.973318576364025,298.15
768.5108653053155,0.5,3.972500717165581,298.15
768.5191986386488,0.5,3.9716664047330728,298.15
768.5275319719822,0.5,3.970822038364521,298.15
768.5358653053155,0.5,3.969971213010764,298.15
768.5441986386488,0.5,3.969125369063432,298.15
768.5525319719821,0.5,3.968301979668967,298.15
768.5608653053155,0.5,3.967508542834604,298.15
