Time,Current,Terminal Voltage,Ambient Temperature
612.1162607152934,-2.5,4.191315848619668,298.15
612.1245940486267,-2.5,4.19259327736724,298.15
612.13292738196,-2.5,4.194048050961412,298.15
612.1412607152934,-2.5,4.195132561188903,298.15
612.1495940486267,-2.5,4.19635159164601,298.15
612.15792738196,-2.5,4.197581222250891,298.15
612.1662607152933,-2.5,4.198646607441617,298.15
612.1745940486267,-2.5,4.19991406028828,298.15
612.1750082067889,-2.5,4.199989999999994,298.15
612.1750082067891,-2.500372055965225,4.199999999999999,298.15
612.1833415401222,-2.4541557468570203,4.2,298.15
612.1916748734556,-2.428617350857461,4.199999999999999,298.15
612.2000082067889,-2.3848166599820355,4.2,298.15
612.2083415401222,-2.3401959279587183,4.200000000000001,298.15
612.2166748734555,-2.296106760069571,4.199999999999999,298.15
612.225008206789,-2.2490898050830093,4.200000000000001,298.15
612.2333415401223,-2.203656271432423,4.199999999999998,298.15
612.2416748734556,-2.152666393187164,4.199999999999999,298.15
612.250008206789,-2.10482412824396,4.199999999999999,298.15
612.2583415401223,-2.0538628985220515,4.199999999999999,298.15
612.2666748734556,-2.004782687547417,4.200000000000001,298.15
612.2750082067889,-1.952300643724029,4.200000000000001,298.15
612.2833415401223,-1.898857933814255,4.199999999999999,298.15
612.2916748734556,-1.8482705087445683,4.199999999999999,298.15
612.3000082067889,-1.7974577408307346,4.199999999999999,298.15
612.3083415401222,-1.7470628917795277,4.199999999999998,298.15
612.3166748734556,-1.6999716047862563,4.2,298.15
612.3250082067889,-1.652022466942228,4.199999999999999,298.15
612.3333415401222,-1.6030712626702384,4.199999999999999,298.15
612.3416748734555,-1.5568870421697742,4.2,298.15
612.350008206789,-1.5135223842733394,4.2,298.15
612.3583415401223,-1.4711621944662912,4.199999999999999,298.15
612.3666748734556,-1.4289407504204708,4.199999999999999,298.15
612.375008206789,-1.3876337120223776,4.199999999999999,298.15
612.3833415401223,-1.348366001565682,4.199999999999999,298.15
612.3916748734556,-1.310090702208193,4.199999999999999,298.15
612.4000082067889,-1.2705210105862874,4.199999999999999,298.15
612.4083415401223,-1.2312406200905812,4.2,298.15
612.4166748734556,-1.1946508024223488,4.199999999999999,298.15
612.4250082067889,-1.1611492349807846,4.2,298.15
612.4333415401222,-1.1290130205974245,4.200000000000001,298.15
612.4416748734556,-1.096922511786465,4.200000000000001,298.15
612.4500082067889,-1.0655041604421764,4.199999999999999,298.15
612.4583415401222,-1.0351332714842003,4.199999999999999,298.15
612.4666748734555,-1.0058487514665917,4.200000000000001,298.15
612.475008206789,-0.9766505896276124,4.199999999999999,298.15
612.4833415401223,-0.9475311357363488,4.200000000000001,298.15
612.4916748734556,-0.9194719267113266,4.200000000000001,298.15
612.500008206789,-0.8930846381719727,4.199999999999999,298.15
612.5083415401223,-0.8686262211208441,4.199999999999999,298.15
612.5166748734556,-0.8456756966382749,4.2,298.15
612.5250082067889,-0.8229897463374264,4.199999999999999,298.15
612.5333415401223,-0.7996927327107112,4.199999999999999,298.15
612.5416748734556,-0.7757553652702174,4.200000000000002,298.15
612.5500082067889,-0.7523358494028244,4.199999999999999,298.15
612.5583415401222,-0.7302281371451602,4.199999999999999,298.15
612.5666748734556,-0.7095746754487282,4.200000000000001,298.15
612.5750082067889,-0.6901734129638248,4.199999999999999,298.15
612.5833415401222,-0.6718415494195507,4.2,298.15
612.5916748734555,-0.6541014008082425,4.199999999999999,298.15
612.600008206789,-0.6364530794576019,4.200000000000001,298.15
612.6083415401223,-0.6186490461360262,4.199999999999999,298.15
612.6166748734556,-0.6010045800134491,4.200000000000001,298.15
612.625008206789,-0.5839161763546954,4.199999999999999,298.15
612.6333415401223,-0.5676373421463079,4.2,298.15
612.6416748734556,-0.5523099633409202,4.199999999999999,298.15
612.6500082067889,-0.5379281706184518,4.200000000000001,298.15
612.6583415401223,-0.5241152328301181,4.199999999999999,298.15
612.6666748734556,-0.5103781428651667,4.199999999999999,298.15
612.6750082067889,-0.496510150074457,4.199999999999999,298.15
612.6833415401222,-0.4824096041961839,4.2,298.15
612.6916748734556,-0.4681131004364708,4.199999999999999,298.15
612.7000082067889,-0.453908390181427,4.199999999999999,298.15
612.7083415401222,-0.4401561956365957,4.199999999999999,298.15
612.7166748734555,-0.427128978920099,4.200000000000001,298.15
612.725008206789,-0.4149729564942377,4.199999999999999,298.15
612.7333415401223,-0.4036951496123515,4.2,298.15
612.7416748734556,-0.3931379614636825,4.199999999999999,298.15
612.750008206789,-0.383043319955636,4.199999999999999,298.15
612.7583415401223,-0.3732266071252824,4.199999999999999,298.15
612.7666748734556,-0.363577213882898,4.2,298.15
612.7750082067889,-0.3540354413833262,4.200000000000001,298.15
612.7833415401223,-0.3445812444531782,4.199999999999999,298.15
612.7916748734556,-0.3352178938298007,4.200000000000001,298.15
612.8000082067889,-0.3259840023652574,4.200000000000001,298.15
612.8083415401222,-0.3169267347244739,4.200000000000002,298.15
612.8166748734556,-0.3080794507431566,4.200000000000001,298.15
612.8250082067889,-0.2994809879845332,4.2,298.15
612.8333415401222,-0.2911748598132973,4.199999999999998,298.15
612.8416748734555,-0.283180913667761,4.199999999999999,298.15
612.850008206789,-0.2755026727936561,4.1999999999999975,298.15
612.8583415401223,-0.2681147641939373,4.199999999999999,298.15
612.8666748734556,-0.26098602265386,4.199999999999999,298.15
612.875008206789,-0.2540850647763343,4.2,298.15
612.8833415401223,-0.2473858642767448,4.200000000000001,298.15
612.8916748734556,-0.2408586896089769,4.199999999999998,298.15
612.9000082067889,-0.2344785298244063,4.199999999999999,298.15
612.9083415401223,-0.2282292384190575,4.2,298.15
612.9166748734556,-0.2221129963572454,4.2,298.15
612.9250082067889,-0.2161514721444561,4.199999999999999,298.15
612.9333415401222,-0.2103554470818287,4.199999999999999,298.15
612.9416748734556,-0.2047211391335841,4.199999999999999,298.15
612.9500082067889,-0.199240159961308,4.2,298.15
612.9583415401222,-0.1939063307039574,4.200000000000001,298.15
612.9666748734555,-0.1887180622095068,4.2,298.15
612.975008206789,-0.1836764011362586,4.199999999999998,298.15
612.9833415401223,-0.1787819744927951,4.199999999999999,298.15
612.9916748734556,-0.174021757109521,4.2,298.15
613.000008206789,-0.1693909074158641,4.199999999999999,298.15
613.0049353635421,-0.1667166666666917,4.2,298.15
613.0049353635424,0.5,4.169626264937211,298.15
613.0132686968755,0.5,4.156540699118528,298.15
613.0216020302088,0.5,4.150426999787362,298.15
613.0299353635421,0.5,4.146166769252727,298.15
613.0382686968754,0.5,4.142769058667263,298.15
613.0466020302088,0.5,4.139862391140452,298.15
613.0549353635421,0.5,4.137274665265176,298.15
613.0632686968754,0.5,4.134917317137389,298.15
613.0716020302087,0.5,4.132736901288856,298.15
613.0799353635421,0.5,4.130695300343874,298.15
613.0882686968754,0.5,4.128760194901377,298.15
613.0966020302088,0.5,4.126916604623455,298.15
613.1049353635422,0.5,4.1251542963295975,298.15
613.1132686968755,0.5,4.1234706537136585,298.15
613.1216020302088,0.5,4.121866295862319,298.15
613.1299353635421,0.5,4.120335411625248,298.15
613.1382686968755,0.5,4.1188644300657336,298.15
613.1466020302088,0.5,4.117450756701821,298.15
613.1549353635421,0.5,4.116092836277477,298.15
613.1632686968754,0.5,4.114785724732406,298.15
613.1716020302088,0.5,4.113522765440514,298.15
613.1799353635421,0.5,4.112299813106946,298.15
613.1882686968754,0.5,4.11111282902355,298.15
613.1966020302087,0.5,4.109957663905137,298.15
613.2049353635421,0.5,4.108818865971994,298.15
613.2132686968754,0.5,4.107690589519044,298.15
613.2216020302088,0.5,4.106575622505382,298.15
613.2299353635422,0.5,4.105477895188125,298.15
613.2382686968755,0.5,4.104400690647626,298.15
613.2466020302088,0.5,4.103349875266048,298.15
613.2549353635421,0.5,4.102326650874566,298.15
613.2632686968755,0.5,4.101334683620011,298.15
613.2716020302088,0.5,4.100374445343487,298.15
613.2799353635421,0.5,4.099435262420788,298.15
613.2882686968754,0.5,4.098520826996596,298.15
613.2966020302088,0.5,4.097642608268233,298.15
613.3049353635421,0.5,4.096808947303375,298.15
613.3132686968754,0.5,4.096019913599955,298.15
613.3216020302087,0.5,4.095265695110578,298.15
613.3299353635421,0.5,4.094536581230392,298.15
613.3382686968754,0.5,4.093826677288372,298.15
613.3466020302088,0.5,4.093129347567721,298.15
613.3549353635422,0.5,4.092427509574484,298.15
613.3632686968755,0.5,4.091720839773137,298.15
613.3716020302088,0.5,4.091019074683633,298.15
613.3799353635421,0.5,4.090332381444592,298.15
613.3882686968755,0.5,4.0896741500588,298.15
613.3966020302088,0.5,4.089051569989431,298.15
613.4049353635421,0.5,4.08846579264461,298.15
613.4132686968754,0.5,4.087909461592727,298.15
613.4216020302088,0.5,4.087370814288308,298.15
613.4299353635421,0.5,4.086831824819011,298.15
613.4382686968754,0.5,4.086280962759702,298.15
613.4466020302087,0.5,4.085724552311219,298.15
613.4549353635421,0.5,4.085172737342813,298.15
613.4632686968754,0.5,4.0846340704167945,298.15
613.4716020302088,0.5,4.084114718980393,298.15
613.4799353635422,0.5,4.083613557678398,298.15
613.4882686968755,0.5,4.083127478195012,298.15
613.4966020302088,0.5,4.082650612644539,298.15
613.5049353635421,0.5,4.082178411065197,298.15
613.5132686968755,0.5,4.08171486670937,298.15
613.5216020302088,0.5,4.0812697060214616,298.15
613.5299353635421,0.5,4.080854308907895,298.15
613.5382686968754,0.5,4.080481188317282,298.15
613.5466020302088,0.5,4.080153436757542,298.15
613.5549353635421,0.5,4.079859972040081,298.15
613.5632686968754,0.5,4.079583769386668,298.15
613.5716020302087,0.5,4.079307994075881,298.15
613.5799353635421,0.5,4.079017299521119,298.15
613.5882686968754,0.5,4.078709262186961,298.15
613.5966020302088,0.5,4.078386710239446,298.15
613.6049353635422,0.5,4.078056371017766,298.15
613.6132686968755,0.5,4.077727587149269,298.15
613.6216020302088,0.5,4.077410984240652,298.15
613.6299353635421,0.5,4.077109141628257,298.15
613.6382686968755,0.5,4.076820861545597,298.15
613.6466020302088,0.5,4.076543907017845,298.15
613.6549353635421,0.5,4.076275905443203,298.15
613.6632686968754,0.5,4.076019787853216,298.15
613.6716020302088,0.5,4.075785352787418,298.15
613.6799353635421,0.5,4.075581410270485,298.15
613.6882686968754,0.5,4.075408085429915,298.15
613.6966020302087,0.5,4.075255910128173,298.15
613.7049353635421,0.5,4.0751120403275625,298.15
613.7132686968754,0.5,4.07496712989599,298.15
613.7216020302088,0.5,4.074811185826155,298.15
613.7299353635422,0.5,4.074635280123238,298.15
613.7382686968755,0.5,4.074436709109367,298.15
613.7466020302088,0.5,4.074219785046937,298.15
613.7549353635421,0.5,4.07399354450855,298.15
613.7632686968755,0.5,4.073769936003226,298.15
613.7716020302088,0.5,4.073556199980725,298.15
613.7799353635421,0.5,4.073356814543349,298.15
613.7882686968754,0.5,4.07317373303175,298.15
613.7966020302088,0.5,4.073003154954678,298.15
613.8049353635421,0.5,4.072842512490125,298.15
613.8132686968754,0.5,4.072694700552953,298.15
613.8216020302087,0.5,4.072558065619518,298.15
613.8299353635421,0.5,4.072423852276824,298.15
613.8382686968754,0.5,4.072285237971748,298.15
613.8466020302088,0.5,4.072143530051212,298.15
613.8549353635422,0.5,4.0719970517798565,298.15
613.8632686968755,0.5,4.071843477929312,298.15
613.8716020302088,0.5,4.071683766614186,298.15
613.8799353635421,0.5,4.071520531574631,298.15
613.8882686968755,0.5,4.0713595368071855,298.15
613.8966020302088,0.5,4.071207422012877,298.15
613.9049353635421,0.5,4.071068354633344,298.15
613.9132686968754,0.5,4.070940789673576,298.15
613.9216020302088,0.5,4.070817715968397,298.15
613.9299353635421,0.5,4.070689978007186,298.15
613.9382686968754,0.5,4.070552226135694,298.15
613.9466020302087,0.5,4.070401450085166,298.15
613.9549353635421,0.5,4.070237388142598,298.15
613.9632686968754,0.5,4.070062456696723,298.15
613.9716020302088,0.5,4.069881468848484,298.15
613.9799353635422,0.5,4.069695702383309,298.15
613.9882686968755,0.5,4.069503641890006,298.15
613.9966020302088,0.5,4.069302053906116,298.15
614.0049353635421,0.5,4.069087187367146,298.15
614.0132686968755,0.5,4.068860578310501,298.15
614.0216020302088,0.5,4.068633222641703,298.15
614.0299353635421,0.5,4.068414669205707,298.15
614.0382686968754,0.5,4.06821060790781,298.15
614.0466020302088,0.5,4.068022685752955,298.15
614.0549353635421,0.5,4.067845263724492,298.15
614.0632686968754,0.5,4.067665170095206,298.15
614.0716020302087,0.5,4.067472193190417,298.15
614.0799353635421,0.5,4.067259928276737,298.15
614.0882686968754,0.5,4.067026243573169,298.15
614.0966020302088,0.5,4.066771157244025,298.15
614.1049353635422,0.5,4.066498683969388,298.15
614.1132686968755,0.5,4.066211932576717,298.15
614.1216020302088,0.5,4.06591140450964,298.15
614.1299353635421,0.5,4.065594327201231,298.15
614.1382686968755,0.5,4.065260840746018,298.15
614.1466020302088,0.5,4.064916168858376,298.15
614.1549353635421,0.5,4.06456749308693,298.15
614.1632686968754,0.5,4.064221792800941,298.15
614.1716020302088,0.5,4.063886778548496,298.15
614.1799353635421,0.5,4.063562504454339,298.15
614.1882686968754,0.5,4.06324359170571,298.15
614.1966020302087,0.5,4.062921904432631,298.15
614.2049353635421,0.5,4.062589455455486,298.15
614.2132686968754,0.5,4.062243755281868,298.15
614.2216020302088,0.5,4.061888226741759,298.15
614.2299353635422,0.5,4.061526359922008,298.15
614.2382686968755,0.5,4.0611607025386816,298.15
614.2466020302088,0.5,4.060793405347043,298.15
614.2549353635421,0.5,4.060418974212626,298.15
614.2632686968755,0.5,4.060030141709578,298.15
614.2716020302088,0.5,4.059627419554226,298.15
614.2799353635421,0.5,4.059214092632742,298.15
614.2882686968754,0.5,4.058793367582978,298.15
614.2966020302088,0.5,4.05836719082977,298.15
614.3049353635421,0.5,4.057934393958018,298.15
614.3132686968754,0.5,4.057491604083856,298.15
614.3216020302087,0.5,4.057033985950996,298.15
614.3299353635421,0.5,4.056561338023657,298.15
614.3382686968754,0.5,4.056078179386336,298.15
614.3466020302088,0.5,4.0555897725901335,298.15
614.3549353635422,0.5,4.055097306158654,298.15
614.3632686968755,0.5,4.054600306392883,298.15
614.3716020302088,0.5,4.054095793105985,298.15
614.3799353635421,0.5,4.053578091880096,298.15
614.3882686968755,0.5,4.053048066449053,298.15
614.3966020302088,0.5,4.052512085250728,298.15
614.4049353635421,0.5,4.051973208522447,298.15
614.4132686968754,0.5,4.051430952244322,298.15
614.4216020302088,0.5,4.050883891606269,298.15
614.4299353635421,0.5,4.050327850858873,298.15
614.4382686968754,0.5,4.049757483661022,298.15
614.4466020302087,0.5,4.049174881778617,298.15
614.4549353635421,0.5,4.048584101000811,298.15
614.4632686968754,0.5,4.047987799704508,298.15
614.4716020302088,0.5,4.047389709345319,298.15
614.4799353635422,0.5,4.046793174915871,298.15
614.4882686968755,0.5,4.046196560043857,298.15
614.4966020302088,0.5,4.045598048686358,298.15
614.5049353635421,0.5,4.045001813565219,298.15
614.5132686968755,0.5,4.044411576297167,298.15
614.5216020302088,0.5,4.043827072771875,298.15
614.5299353635421,0.5,4.043249815147258,298.15
614.5382686968754,0.5,4.042676966406026,298.15
614.5466020302088,0.5,4.042099325085411,298.15
614.5549353635421,0.5,4.041508686857023,298.15
614.5632686968754,0.5,4.040902686305211,298.15
614.5716020302087,0.5,4.040281102086823,298.15
614.5799353635421,0.5,4.039642756967549,298.15
614.5882686968754,0.5,4.03898739684514,298.15
614.5966020302088,0.5,4.038316432875822,298.15
614.6049353635422,0.5,4.037631415181531,298.15
614.6132686968755,0.5,4.036937301589775,298.15
614.6216020302088,0.5,4.036240324431887,298.15
614.6299353635421,0.5,4.035544079215475,298.15
614.6382686968755,0.5,4.034848771555695,298.15
614.6466020302088,0.5,4.034154241342272,298.15
614.6549353635421,0.5,4.033458480123143,298.15
614.6632686968754,0.5,4.032760668573475,298.15
614.6716020302088,0.5,4.0320613623102926,298.15
614.6799353635421,0.5,4.0313583670684885,298.15
614.6882686968754,0.5,4.030648751121042,298.15
614.6966020302087,0.5,4.029933532000943,298.15
614.7049353635421,0.5,4.029212471344128,298.15
614.7132686968754,0.5,4.028486196251144,298.15
614.7216020302088,0.5,4.027757527955217,298.15
614.7299353635422,0.5,4.027026333471332,298.15
614.7382686968755,0.5,4.026291299285799,298.15
614.7466020302088,0.5,4.0255566997304175,298.15
614.7549353635421,0.5,4.0248235894982205,298.15
614.7632686968755,0.5,4.024089010011396,298.15
614.7716020302088,0.5,4.023348904359308,298.15
614.7799353635421,0.5,4.022597855515596,298.15
614.7882686968754,0.5,4.021831791573275,298.15
614.7966020302088,0.5,4.021053958678364,298.15
614.8049353635421,0.5,4.020272396293632,298.15
614.8132686968754,0.5,4.019496932968954,298.15
614.8216020302087,0.5,4.018735630577108,298.15
614.8299353635421,0.5,4.017991336426395,298.15
614.8382686968754,0.5,4.017263368278117,298.15
614.8466020302088,0.5,4.016546679456885,298.15
614.8549353635422,0.5,4.015834571332294,298.15
614.8632686968755,0.5,4.015118347471147,298.15
614.8716020302088,0.5,4.014388525304453,298.15
614.8799353635421,0.5,4.0136406790168095,298.15
614.8882686968755,0.5,4.012876513889685,298.15
614.8966020302088,0.5,4.0120988796068895,298.15
614.9049353635421,0.5,4.011313527898116,298.15
614.9132686968754,0.5,4.010527044994273,298.15
614.9216020302088,0.5,4.009744817453251,298.15
614.9299353635421,0.5,4.008970325793856,298.15
614.9382686968754,0.5,4.008204097319012,298.15
614.9466020302087,0.5,4.007443418885658,298.15
614.9549353635421,0.5,4.006683408352561,298.15
614.9632686968754,0.5,4.005919195849279,298.15
614.9716020302088,0.5,4.005147160201407,298.15
614.9799353635422,0.5,4.004368446845878,298.15
614.9882686968755,0.5,4.00358492536702,298.15
614.9966020302088,0.5,4.002797582464572,298.15
615.0049353635421,0.5,4.002008285023365,298.15
615.0132686968755,0.5,4.00122437922473,298.15
615.0216020302088,0.5,4.000446435131645,298.15
615.0299353635421,0.5,3.99967165097069,298.15
615.0382686968754,0.5,3.9988956423607496,298.15
615.0466020302088,0.5,3.998114677031604,298.15
615.0549353635421,0.5,3.997327585882148,298.15
615.0632686968754,0.5,3.996537575163076,298.15
615.0716020302087,0.5,3.9957489045960575,298.15
615.0799353635421,0.5,3.994964616825583,298.15
615.0882686968754,0.5,3.99418574036688,298.15
615.0966020302088,0.5,3.993412876511498,298.15
615.1049353635422,0.5,3.9926442447553145,298.15
615.1132686968755,0.5,3.9918766581961966,298.15
615.1216020302088,0.5,3.991108083101537,298.15
615.1299353635421,0.5,3.990335810527379,298.15
615.1382686968755,0.5,3.989558114658319,298.15
615.1466020302088,0.5,3.988777058870951,298.15
615.1549353635421,0.5,3.9879963966096663,298.15
615.1632686968754,0.5,3.9872218278491154,298.15
615.1716020302088,0.5,3.9864581619330575,298.15
615.1799353635421,0.5,3.985704917239169,298.15
615.1882686968754,0.5,3.984957931474226,298.15
615.1966020302087,0.5,3.9842084554652257,298.15
615.2049353635421,0.5,3.9834446034437727,298.15
615.2132686968754,0.5,3.9826572062961927,298.15
615.2216020302088,0.5,3.981845269327687,298.15
615.2299353635422,0.5,3.9810150789014047,298.15
615.2382686968755,0.5,3.980176111937348,298.15
615.2466020302088,0.5,3.9793433509578624,298.15
615.2549353635421,0.5,3.978529929095976,298.15
615.2632686968755,0.5,3.977749790461954,298.15
615.2716020302088,0.5,3.977008977712364,298.15
615.2799353635421,0.5,3.976303234039748,298.15
615.2882686968754,0.5,3.975617244523443,298.15
615.2966020302088,0.5,3.97493027103012,298.15
615.3049353635421,0.5,3.97422425459379,298.15
615.3132686968754,0.5,3.973485504124201,298.15
615.3216020302087,0.5,3.9727110433404023,298.15
615.3299353635421,0.5,3.9719043195793233,298.15
615.3382686968754,0.5,3.971074828879831,298.15
615.3466020302088,0.5,3.970229527229728,298.15
615.3549353635422,0.5,3.9693715193842727,298.15
615.3632686968755,0.5,3.9685171846660663,298.15
615.3716020302088,0.5,3.967685157089007,298.15
615.3799353635421,0.5,3.966880704082163,298.15
