Time,Current,Terminal Voltage,Ambient Temperature
1531.4868050612497,-2.5,4.1912749876069295,298.15
1531.495138394583,-2.5,4.192622696919852,298.15
1531.503471727916,-2.5,4.193724221756064,298.15
1531.511805061249,-2.5,4.195091396531232,298.15
1531.5201383945828,-2.5,4.195962093872831,298.15
1531.528471727916,-2.5,4.197416718416552,298.15
1531.5368050612494,-2.5,4.198535576336237,298.15
1531.5451383945826,-2.5,4.199783642801293,298.15
1531.5463176641863,-2.5,4.1999900000000085,298.15
1531.5463176641867,-2.5003763006627278,4.200000000000003,298.15
1531.5546509975195,-2.4590015135023253,4.199999999999999,298.15
1531.5629843308532,-2.4125242835492946,4.199999999999999,298.15
1531.5713176641864,-2.365914644849638,4.199999999999999,298.15
1531.5796509975198,-2.3237100885796607,4.2,298.15
1531.587984330853,-2.271628624799208,4.199999999999999,298.15
1531.5963176641865,-2.221623970261371,4.199999999999999,298.15
1531.6046509975197,-2.175879520907787,4.199999999999998,298.15
1531.6129843308531,-2.120453320744435,4.199999999999999,298.15
1531.6213176641863,-2.067616244035732,4.2,298.15
1531.6296509975198,-2.0202827171404145,4.199999999999999,298.15
1531.637984330853,-1.964694667395288,4.200000000000001,298.15
1531.6463176641864,-1.9061165648630989,4.199999999999999,298.15
1531.6546509975196,-1.8566045396666344,4.200000000000001,298.15
1531.662984330853,-1.8076695033812324,4.199999999999999,298.15
1531.6713176641863,-1.755552752494233,4.199999999999999,298.15
1531.6796509975195,-1.7058526538371086,4.2,298.15
1531.6879843308532,-1.6570668964776845,4.2,298.15
1531.6963176641864,-1.6088628095453572,4.199999999999999,298.15
1531.7046509975198,-1.5631848354996878,4.199999999999999,298.15
1531.712984330853,-1.5180548757043728,4.199999999999999,298.15
1531.7213176641865,-1.4732716185760983,4.2,298.15
1531.7296509975197,-1.4289612074725655,4.199999999999999,298.15
1531.7379843308531,-1.387601977382012,4.199999999999999,298.15
1531.7463176641863,-1.3495744109422243,4.2,298.15
1531.7546509975198,-1.3103329554322911,4.1999999999999975,298.15
1531.762984330853,-1.2688752753917731,4.200000000000001,298.15
1531.7713176641864,-1.2293408863662767,4.199999999999999,298.15
1531.7796509975196,-1.1936996136720897,4.2,298.15
1531.787984330853,-1.159925108674909,4.199999999999999,298.15
1531.7963176641863,-1.126882659234042,4.199999999999999,298.15
1531.8046509975195,-1.094928929395906,4.200000000000001,298.15
1531.8129843308532,-1.063981198877355,4.199999999999999,298.15
1531.8213176641864,-1.0327921545202254,4.199999999999999,298.15
1531.8296509975198,-1.0016416972593742,4.199999999999999,298.15
1531.837984330853,-0.9721162624871336,4.199999999999999,298.15
1531.8463176641865,-0.943963619453154,4.199999999999999,298.15
1531.8546509975197,-0.916697677615379,4.2,298.15
1531.8629843308531,-0.8905549663115331,4.199999999999999,298.15
1531.8713176641863,-0.8660866439444783,4.200000000000001,298.15
1531.8796509975198,-0.8427380261746251,4.199999999999999,298.15
1531.887984330853,-0.8193729315336007,4.200000000000001,298.15
1531.8963176641864,-0.7955184101519285,4.200000000000001,298.15
1531.9046509975196,-0.7716435427874625,4.200000000000001,298.15
1531.912984330853,-0.7484630876173964,4.199999999999999,298.15
1531.9213176641863,-0.726572268478577,4.199999999999999,298.15
1531.9296509975195,-0.7063016373426583,4.200000000000001,298.15
1531.9379843308532,-0.6873241106358958,4.2,298.15
1531.9463176641864,-0.669062966533742,4.199999999999999,298.15
1531.9546509975198,-0.6510993534280494,4.199999999999999,298.15
1531.962984330853,-0.6331390585743479,4.199999999999999,298.15
1531.9713176641865,-0.6151450799568945,4.199999999999999,298.15
1531.9796509975197,-0.5974196927896096,4.199999999999998,298.15
1531.9879843308531,-0.5803911042372413,4.199999999999999,298.15
1531.9963176641863,-0.5642997734112037,4.2,298.15
1532.0046509975198,-0.5491415782825693,4.2,298.15
1532.012984330853,-0.5347729481128021,4.199999999999999,298.15
1532.0213176641864,-0.5206988964920608,4.200000000000001,298.15
1532.0296509975196,-0.5065690139805249,4.2,298.15
1532.037984330853,-0.492253498954263,4.199999999999999,298.15
1532.0463176641863,-0.4777802440413051,4.2,298.15
1532.0546509975195,-0.4634007693485035,4.2,298.15
1532.0629843308532,-0.4495390304001992,4.200000000000001,298.15
1532.0713176641864,-0.4364027822265636,4.2,298.15
1532.0796509975198,-0.4240322400904228,4.200000000000001,298.15
1532.087984330853,-0.4123494517782931,4.199999999999999,298.15
1532.0963176641865,-0.4012276408569876,4.200000000000001,298.15
1532.1046509975197,-0.3905149424359126,4.2,298.15
1532.1129843308531,-0.3801529483975747,4.2,298.15
1532.1213176641863,-0.3700716934433832,4.199999999999999,298.15
1532.1296509975198,-0.3602084268109654,4.199999999999999,298.15
1532.137984330853,-0.3505426663382457,4.199999999999999,298.15
1532.1463176641864,-0.3410776682702621,4.2,298.15
1532.1546509975196,-0.3318249933017576,4.2,298.15
1532.162984330853,-0.32277184028663,4.199999999999999,298.15
1532.1713176641863,-0.3139135070303251,4.200000000000001,298.15
1532.1796509975195,-0.3052725602594789,4.199999999999999,298.15
1532.1879843308532,-0.2968798726612824,4.2,298.15
1532.1963176641864,-0.2887449951327635,4.199999999999999,298.15
1532.2046509975198,-0.2808542260346904,4.200000000000001,298.15
1532.212984330853,-0.27319094981719,4.199999999999999,298.15
1532.2213176641865,-0.2657528412955586,4.199999999999999,298.15
1532.2296509975197,-0.2585392634167573,4.199999999999999,298.15
1532.2379843308531,-0.2515443062560901,4.200000000000001,298.15
1532.2463176641863,-0.244749352507242,4.199999999999999,298.15
1532.2546509975198,-0.2381444313959437,4.2,298.15
1532.262984330853,-0.2317409396875033,4.199999999999998,298.15
1532.2713176641864,-0.2255383209443411,4.200000000000001,298.15
1532.2796509975196,-0.2195201279801721,4.199999999999999,298.15
1532.287984330853,-0.2136751551586777,4.199999999999999,298.15
1532.2963176641863,-0.2079859119096466,4.199999999999999,298.15
1532.3046509975195,-0.2024380361181384,4.199999999999999,298.15
1532.3129843308532,-0.1970233243749954,4.199999999999999,298.15
1532.3213176641864,-0.1917441521588596,4.199999999999998,298.15
1532.3296509975198,-0.1866060040628125,4.200000000000001,298.15
1532.337984330853,-0.1816099587726008,4.199999999999999,298.15
1532.3463176641865,-0.1767607107828135,4.2,298.15
1532.3546509975197,-0.1720681899314893,4.200000000000001,298.15
1532.3629843308531,-0.1675009980254382,4.2,298.15
1532.364440584084,-0.1667166666666936,4.2,298.15
1532.3644405840842,0.5,4.169863735069512,298.15
1532.3727739174171,0.5,4.156802639176199,298.15
1532.3811072507506,0.5,4.150695509534224,298.15
1532.389440584084,0.5,4.146435498403699,298.15
1532.3977739174172,0.5,4.143034513542448,298.15
1532.406107250751,0.5,4.140123914851809,298.15
1532.414440584084,0.5,4.137533849575453,298.15
1532.422773917417,0.5,4.135173598981214,298.15
1532.4311072507503,0.5,4.132985101907428,298.15
1532.439440584084,0.5,4.130930321639084,298.15
1532.4477739174172,0.5,4.12899063085405,298.15
1532.4561072507506,0.5,4.127151859573716,298.15
1532.4644405840838,0.5,4.125403683566201,298.15
1532.4727739174173,0.5,4.123737774065447,298.15
1532.4811072507505,0.5,4.122146954334966,298.15
1532.489440584084,0.5,4.120617353078359,298.15
1532.4977739174171,0.5,4.119138629833054,298.15
1532.5061072507506,0.5,4.117712703442093,298.15
1532.514440584084,0.5,4.116338773434825,298.15
1532.5227739174172,0.5,4.1150155255499214,298.15
1532.531107250751,0.5,4.113741534380694,298.15
1532.539440584084,0.5,4.112513980302296,298.15
1532.547773917417,0.5,4.111320844071248,298.15
1532.5561072507503,0.5,4.110151501730722,298.15
1532.564440584084,0.5,4.10900787428847,298.15
1532.5727739174172,0.5,4.107888786889696,298.15
1532.5811072507506,0.5,4.106791979272459,298.15
1532.5894405840838,0.5,4.1057156366483145,298.15
1532.5977739174173,0.5,4.104659955037366,298.15
1532.6061072507505,0.5,4.103624192253344,298.15
1532.614440584084,0.5,4.10260189249929,298.15
1532.6227739174171,0.5,4.101593620728492,298.15
1532.6311072507506,0.5,4.100606990168361,298.15
1532.639440584084,0.5,4.099649245772012,298.15
1532.6477739174172,0.5,4.098729159155415,298.15
1532.656107250751,0.5,4.097854018844798,298.15
1532.664440584084,0.5,4.097023174481808,298.15
1532.672773917417,0.5,4.096230765020781,298.15
1532.6811072507503,0.5,4.095457050951769,298.15
1532.689440584084,0.5,4.094691419014431,298.15
1532.6977739174172,0.5,4.093936989649508,298.15
1532.7061072507506,0.5,4.093198811284147,298.15
1532.7144405840838,0.5,4.09248191104981,298.15
1532.7227739174173,0.5,4.091789855253989,298.15
1532.7311072507505,0.5,4.091121597660884,298.15
1532.739440584084,0.5,4.090474292089334,298.15
1532.7477739174171,0.5,4.08984195799607,298.15
1532.7561072507506,0.5,4.08921622456417,298.15
1532.764440584084,0.5,4.088602619125847,298.15
1532.7727739174172,0.5,4.088003630129231,298.15
1532.781107250751,0.5,4.087422128332551,298.15
1532.789440584084,0.5,4.086859506637712,298.15
1532.797773917417,0.5,4.086315885365595,298.15
1532.8061072507503,0.5,4.085792561049527,298.15
1532.814440584084,0.5,4.085284860640505,298.15
1532.8227739174172,0.5,4.084784489599093,298.15
1532.8311072507506,0.5,4.084286334594236,298.15
1532.8394405840838,0.5,4.08378821378397,298.15
1532.8477739174173,0.5,4.083290956925718,298.15
1532.8561072507505,0.5,4.082805183730834,298.15
1532.864440584084,0.5,4.082340544544712,298.15
1532.8727739174171,0.5,4.081901808374813,298.15
1532.8811072507506,0.5,4.081490214627795,298.15
1532.889440584084,0.5,4.081103649684359,298.15
1532.8977739174172,0.5,4.080735156405254,298.15
1532.906107250751,0.5,4.0803815678599005,298.15
1532.914440584084,0.5,4.080043798943912,298.15
1532.922773917417,0.5,4.079721351453783,298.15
1532.9311072507503,0.5,4.079412551700582,298.15
1532.939440584084,0.5,4.0791168840274175,298.15
1532.9477739174172,0.5,4.078831127990638,298.15
1532.9561072507506,0.5,4.07855099654474,298.15
1532.9644405840838,0.5,4.078268303040971,298.15
1532.9727739174173,0.5,4.077974052757082,298.15
1532.9811072507505,0.5,4.077666211880304,298.15
1532.989440584084,0.5,4.077348572302691,298.15
1532.9977739174171,0.5,4.077032208268654,298.15
1533.0061072507506,0.5,4.076727873303918,298.15
1533.014440584084,0.5,4.07644583917852,298.15
1533.0227739174172,0.5,4.076191233509666,298.15
1533.031107250751,0.5,4.07596648993867,298.15
1533.039440584084,0.5,4.075769048963959,298.15
1533.047773917417,0.5,4.075590767133386,298.15
1533.0561072507503,0.5,4.075425282285096,298.15
1533.064440584084,0.5,4.075266163321792,298.15
1533.0727739174172,0.5,4.0751080175043,298.15
1533.0811072507506,0.5,4.074944257925831,298.15
1533.0894405840838,0.5,4.074773226912102,298.15
1533.0977739174173,0.5,4.074594753197534,298.15
1533.1061072507505,0.5,4.074408800086081,298.15
1533.114440584084,0.5,4.074215153379221,298.15
1533.1227739174171,0.5,4.074015714358323,298.15
1533.1311072507506,0.5,4.073815678949569,298.15
1533.139440584084,0.5,4.073615646382153,298.15
1533.1477739174172,0.5,4.0734156825869725,298.15
1533.156107250751,0.5,4.073221664421313,298.15
1533.164440584084,0.5,4.073039595773379,298.15
1533.172773917417,0.5,4.07287215902123,298.15
1533.1811072507503,0.5,4.0727172236822495,298.15
1533.189440584084,0.5,4.072570668976204,298.15
1533.1977739174172,0.5,4.072426981851638,298.15
1533.2061072507506,0.5,4.072282831057477,298.15
1533.2144405840838,0.5,4.072137795473903,298.15
1533.2227739174173,0.5,4.07199071834629,298.15
1533.2311072507505,0.5,4.071840861422413,298.15
1533.239440584084,0.5,4.0716883382324855,298.15
1533.2477739174171,0.5,4.071533973552144,298.15
1533.2561072507506,0.5,4.071380008724944,298.15
1533.264440584084,0.5,4.071232766899982,298.15
1533.2727739174172,0.5,4.071093763773424,298.15
1533.281107250751,0.5,4.070958066053225,298.15
1533.289440584084,0.5,4.070820800967292,298.15
1533.297773917417,0.5,4.070678049906328,298.15
1533.3061072507503,0.5,4.07052691917614,298.15
1533.314440584084,0.5,4.07036639649102,298.15
1533.3227739174172,0.5,4.070198384311867,298.15
1533.3311072507506,0.5,4.070020105246083,298.15
1533.3394405840838,0.5,4.069831163163666,298.15
1533.3477739174173,0.5,4.069636969934564,298.15
1533.3561072507505,0.5,4.06944254651052,298.15
1533.364440584084,0.5,4.069250207878519,298.15
1533.3727739174171,0.5,4.069061188845764,298.15
1533.3811072507506,0.5,4.068872398581787,298.15
1533.389440584084,0.5,4.068676976846403,298.15
1533.3977739174172,0.5,4.0684739185110335,298.15
1533.406107250751,0.5,4.068268319593857,298.15
1533.414440584084,0.5,4.068062593494126,298.15
1533.422773917417,0.5,4.067854330380213,298.15
1533.4311072507503,0.5,4.067642252669586,298.15
1533.439440584084,0.5,4.067425787218902,298.15
1533.4477739174172,0.5,4.067200575760101,298.15
1533.4561072507506,0.5,4.06696177434553,298.15
1533.4644405840838,0.5,4.066706211374836,298.15
1533.4727739174173,0.5,4.066429605745855,298.15
1533.4811072507505,0.5,4.06612945570633,298.15
1533.489440584084,0.5,4.065809858807196,298.15
1533.4977739174171,0.5,4.065476387788831,298.15
1533.5061072507506,0.5,4.065132538548712,298.15
1533.514440584084,0.5,4.064782686146367,298.15
1533.5227739174172,0.5,4.064430447014942,298.15
1533.531107250751,0.5,4.064084759532212,298.15
1533.539440584084,0.5,4.063751824969572,298.15
1533.547773917417,0.5,4.063430013777076,298.15
1533.5561072507503,0.5,4.063113398489698,298.15
1533.564440584084,0.5,4.062797667139725,298.15
1533.5727739174172,0.5,4.062475266531112,298.15
1533.5811072507506,0.5,4.062137511637291,298.15
1533.5894405840838,0.5,4.061782116089864,298.15
1533.5977739174173,0.5,4.061409857943317,298.15
1533.6061072507505,0.5,4.06102358272763,298.15
1533.614440584084,0.5,4.060626049999876,298.15
1533.6227739174171,0.5,4.060222117093547,298.15
1533.6311072507506,0.5,4.059814175798547,298.15
1533.639440584084,0.5,4.059398367721699,298.15
1533.6477739174172,0.5,4.058972578418642,298.15
1533.656107250751,0.5,4.058543705426279,298.15
1533.664440584084,0.5,4.058116017184137,298.15
1533.672773917417,0.5,4.057686815001199,298.15
1533.6811072507503,0.5,4.057253305453519,298.15
1533.689440584084,0.5,4.056810891763231,298.15
1533.6977739174172,0.5,4.0563532961770985,298.15
1533.7061072507506,0.5,4.055877842316593,298.15
1533.7144405840838,0.5,4.055385084779435,298.15
1533.7227739174173,0.5,4.054878180220566,298.15
1533.7311072507505,0.5,4.054359718994392,298.15
1533.739440584084,0.5,4.053833129057388,298.15
1533.7477739174171,0.5,4.05330103497492,298.15
1533.7561072507506,0.5,4.052764894260022,298.15
1533.764440584084,0.5,4.052224784888017,298.15
1533.7727739174172,0.5,4.051683969969391,298.15
1533.781107250751,0.5,4.051142908271905,298.15
1533.789440584084,0.5,4.050598563897454,298.15
1533.797773917417,0.5,4.05004681206781,298.15
1533.8061072507503,0.5,4.049483250929642,298.15
1533.814440584084,0.5,4.048903275104524,298.15
1533.8227739174172,0.5,4.048305915989506,298.15
1533.8311072507506,0.5,4.047696031016181,298.15
1533.8394405840838,0.5,4.04707886691744,298.15
1533.8477739174173,0.5,4.046460211252217,298.15
1533.8561072507505,0.5,4.0458443555663255,298.15
1533.864440584084,0.5,4.045236632961098,298.15
1533.8727739174171,0.5,4.044637245781351,298.15
1533.8811072507506,0.5,4.044042366944351,298.15
1533.889440584084,0.5,4.043450754589619,298.15
1533.8977739174172,0.5,4.042859393447806,298.15
1533.906107250751,0.5,4.04226202489053,298.15
1533.914440584084,0.5,4.041656209271371,298.15
1533.922773917417,0.5,4.04104208641081,298.15
1533.9311072507503,0.5,4.040416451465116,298.15
1533.939440584084,0.5,4.039777388382968,298.15
1533.9477739174172,0.5,4.039128853620895,298.15
1533.9561072507506,0.5,4.038472404639152,298.15
1533.9644405840838,0.5,4.037806869562365,298.15
1533.9727739174173,0.5,4.037131687395133,298.15
1533.9811072507505,0.5,4.036447466928204,298.15
1533.989440584084,0.5,4.03575605636652,298.15
1533.9977739174171,0.5,4.035060734654165,298.15
1534.0061072507506,0.5,4.0343624077078255,298.15
1534.014440584084,0.5,4.033660601243549,298.15
1534.0227739174172,0.5,4.032954483919943,298.15
1534.031107250751,0.5,4.032243556903723,298.15
1534.039440584084,0.5,4.031529227008657,298.15
1534.047773917417,0.5,4.030812542197533,298.15
1534.0561072507503,0.5,4.03009438772016,298.15
1534.064440584084,0.5,4.029376301385013,298.15
1534.0727739174172,0.5,4.028659249869667,298.15
1534.0811072507506,0.5,4.027942736720526,298.15
1534.0894405840838,0.5,4.027226161416404,298.15
1534.0977739174173,0.5,4.026505148087237,298.15
1534.1061072507505,0.5,4.025774174280271,298.15
1534.114440584084,0.5,4.0250352363400825,298.15
1534.1227739174171,0.5,4.0242907879269465,298.15
1534.1311072507506,0.5,4.023540370780879,298.15
1534.139440584084,0.5,4.022783809715048,298.15
1534.1477739174172,0.5,4.022024199352483,298.15
1534.156107250751,0.5,4.021263314333428,298.15
1534.164440584084,0.5,4.02050118028854,298.15
1534.172773917417,0.5,4.019740852162595,298.15
1534.1811072507503,0.5,4.018986022536998,298.15
1534.189440584084,0.5,4.018237954421499,298.15
1534.1977739174172,0.5,4.017496681393732,298.15
1534.2061072507506,0.5,4.016761951100396,298.15
1534.2144405840838,0.5,4.016030939227329,298.15
1534.2227739174173,0.5,4.015299806677319,298.15
1534.2311072507505,0.5,4.0145659469329145,298.15
1534.239440584084,0.5,4.0138248861622055,298.15
1534.2477739174171,0.5,4.013074731233752,298.15
1534.2561072507506,0.5,4.012316852986151,298.15
1534.264440584084,0.5,4.0115526793128415,298.15
1534.2727739174172,0.5,4.010784607659694,298.15
1534.281107250751,0.5,4.010014942548208,298.15
1534.289440584084,0.5,4.00924594361933,298.15
1534.297773917417,0.5,4.008479838979858,298.15
1534.3061072507503,0.5,4.007718700095193,298.15
1534.314440584084,0.5,4.006959968856866,298.15
1534.3227739174172,0.5,4.006202775388291,298.15
1534.3311072507506,0.5,4.005445611365868,298.15
1534.3394405840838,0.5,4.004685421073413,298.15
1534.3477739174173,0.5,4.003918317403247,298.15
1534.3561072507505,0.5,4.003143244483347,298.15
1534.364440584084,0.5,4.00235911624595,298.15
1534.3727739174171,0.5,4.001565532328282,298.15
1534.3811072507506,0.5,4.000764269317664,298.15
1534.389440584084,0.5,3.99995971870404,298.15
1534.3977739174172,0.5,3.9991543523389015,298.15
1534.406107250751,0.5,3.998347386433167,298.15
1534.414440584084,0.5,3.997541901570356,298.15
1534.422773917417,0.5,3.9967424307194,298.15
1534.4311072507503,0.5,3.995949642785365,298.15
1534.439440584084,0.5,3.99516432629111,298.15
1534.4477739174172,0.5,3.9943890153856967,298.15
1534.4561072507506,0.5,3.9936213867561614,298.15
1534.4644405840838,0.5,3.9928568702141423,298.15
1534.4727739174173,0.5,3.992092798002712,298.15
1534.4811072507505,0.5,3.991325305403034,298.15
1534.489440584084,0.5,3.9905509391973855,298.15
1534.4977739174171,0.5,3.9897708475592144,298.15
1534.5061072507506,0.5,3.988987108144852,298.15
1534.514440584084,0.5,3.988203002981245,298.15
1534.5227739174172,0.5,3.987423020521968,298.15
1534.531107250751,0.5,3.986651398233173,298.15
1534.539440584084,0.5,3.985889760283421,298.15
1534.547773917417,0.5,3.9851382155914994,298.15
1534.5561072507503,0.5,3.984391002652793,298.15
1534.564440584084,0.5,3.9836424031181714,298.15
1534.5727739174172,0.5,3.982884577659669,298.15
1534.5811072507506,0.5,3.9821088000372296,298.15
1534.5894405840838,0.5,3.981314463050256,298.15
1534.5977739174173,0.5,3.98050518947209,298.15
1534.6061072507505,0.5,3.979683443721441,298.15
1534.614440584084,0.5,3.978856892848648,298.15
1534.6227739174171,0.5,3.978039205029477,298.15
1534.6311072507506,0.5,3.97724371763435,298.15
1534.639440584084,0.5,3.976480014156314,298.15
1534.6477739174172,0.5,3.975750464807805,298.15
1534.656107250751,0.5,3.9750461663862993,298.15
1534.664440584084,0.5,3.974351505957919,298.15
1534.672773917417,0.5,3.973647548040193,298.15
1534.6811072507503,0.5,3.972916999114033,298.15
1534.689440584084,0.5,3.972155580659815,298.15
1534.6977739174172,0.5,3.9713670813155177,298.15
1534.7061072507506,0.5,3.970557076428951,298.15
1534.7144405840838,0.5,3.969733228906808,298.15
