Time,Current,Terminal Voltage,Ambient Temperature
152.47414702840717,-2.5,4.190636460749355,298.15
152.48248036174053,-2.5,4.1915472199962025,298.15
152.49081369507385,-2.5,4.192991244799757,298.15
152.49914702840718,-2.5,4.194075645878904,298.15
152.5074803617405,-2.5,4.195184411900192,298.15
152.51581369507386,-2.5,4.196388789008861,298.15
152.5241470284072,-2.5,4.197821624008773,298.15
152.5324803617405,-2.5,4.199593952400363,298.15
152.5345154189313,-2.5,4.1999900000000014,298.15
152.53451541893162,-2.5003922695099865,4.200000000000001,298.15
152.54284875226466,-2.4448491407253465,4.200000000000001,298.15
152.551182085598,-2.3857886444139087,4.199999999999999,298.15
152.5595154189313,-2.3350023412993104,4.199999999999999,298.15
152.56784875226467,-2.283393873892644,4.199999999999999,298.15
152.576182085598,-2.2217110629355057,4.2,298.15
152.58451541893132,-2.170695850171961,4.199999999999999,298.15
152.59284875226464,-2.1162231520809947,4.199999999999996,298.15
152.601182085598,-2.0495411460178654,4.200000000000001,298.15
152.60951541893132,-1.9926527153173532,4.199999999999999,298.15
152.61784875226465,-1.9416252571482329,4.200000000000001,298.15
152.626182085598,-1.886003422688228,4.2,298.15
152.63451541893133,-1.8281596571959355,4.199999999999999,298.15
152.64284875226463,-1.7761091579820625,4.199999999999999,298.15
152.65118208559798,-1.724134393633373,4.199999999999999,298.15
152.6595154189313,-1.672888655997507,4.199999999999999,298.15
152.66784875226466,-1.6226497808729787,4.2,298.15
152.676182085598,-1.5740774533293718,4.199999999999999,298.15
152.6845154189313,-1.5268515066939805,4.2,298.15
152.69284875226467,-1.4814243969416552,4.200000000000001,298.15
152.701182085598,-1.439623958340248,4.200000000000001,298.15
152.70951541893132,-1.3957114272692328,4.199999999999999,298.15
152.71784875226464,-1.3489925217597718,4.2,298.15
152.726182085598,-1.306358513945126,4.200000000000001,298.15
152.73451541893132,-1.2692409588005034,4.2,298.15
152.74284875226465,-1.2336966031230978,4.200000000000001,298.15
152.751182085598,-1.198648285937295,4.199999999999998,298.15
152.75951541893133,-1.1637377813617626,4.200000000000001,298.15
152.76784875226463,-1.1278738478067845,4.199999999999999,298.15
152.77618208559798,-1.0922253411669036,4.199999999999999,298.15
152.7845154189313,-1.0591825772508672,4.199999999999999,298.15
152.79284875226466,-1.0289060827280354,4.200000000000001,298.15
152.801182085598,-0.9997468473256144,4.200000000000001,298.15
152.8095154189313,-0.9712389652512574,4.199999999999999,298.15
152.81784875226467,-0.9439022063848912,4.199999999999999,298.15
152.826182085598,-0.9170358743542886,4.2,298.15
152.83451541893132,-0.8899371709919962,4.200000000000001,298.15
152.84284875226464,-0.8630306098366131,4.1999999999999975,298.15
152.851182085598,-0.8370073308063888,4.199999999999999,298.15
152.85951541893132,-0.8121855099274132,4.199999999999999,298.15
152.86784875226465,-0.7888162097670827,4.199999999999999,298.15
152.876182085598,-0.7669432231604014,4.199999999999999,298.15
152.88451541893133,-0.7462670328789861,4.199999999999999,298.15
152.89284875226463,-0.7260733273205465,4.200000000000001,298.15
152.90118208559798,-0.7058665733714754,4.2,298.15
152.9095154189313,-0.6854538390365449,4.199999999999999,298.15
152.91784875226466,-0.6653071655899376,4.200000000000001,298.15
152.926182085598,-0.6461747167040194,4.199999999999999,298.15
152.9345154189313,-0.6284474466973511,4.199999999999999,298.15
152.94284875226467,-0.6119234603386824,4.199999999999999,298.15
152.951182085598,-0.595856291996656,4.199999999999999,298.15
152.95951541893132,-0.5792977438189651,4.199999999999999,298.15
152.96784875226464,-0.5620330574583916,4.200000000000003,298.15
152.976182085598,-0.5445803468226422,4.199999999999999,298.15
152.98451541893132,-0.5276432285303285,4.199999999999999,298.15
152.99284875226465,-0.5117203603456961,4.199999999999999,298.15
153.001182085598,-0.4969752486239152,4.2,298.15
153.00951541893133,-0.4832669897785329,4.199999999999999,298.15
153.01784875226463,-0.4702845226303945,4.199999999999999,298.15
153.02618208559798,-0.4577679119163793,4.2,298.15
153.0345154189313,-0.445549398790425,4.200000000000003,298.15
153.04284875226466,-0.433579428642539,4.200000000000001,298.15
153.051182085598,-0.4217977274706556,4.199999999999999,298.15
153.0595154189313,-0.4102290584306616,4.199999999999999,298.15
153.06784875226467,-0.3988937419901492,4.199999999999999,298.15
153.076182085598,-0.3878133144973619,4.199999999999999,298.15
153.08451541893132,-0.3769758425234553,4.2,298.15
153.09284875226464,-0.3663903040717255,4.2,298.15
153.101182085598,-0.3561143552254861,4.200000000000001,298.15
153.10951541893132,-0.3461882179388725,4.200000000000001,298.15
153.11784875226465,-0.3366027696251349,4.199999999999999,298.15
153.126182085598,-0.3273253471436618,4.2,298.15
153.13451541893133,-0.3183432457376455,4.199999999999999,298.15
153.14284875226463,-0.3096514241210212,4.2,298.15
153.15118208559798,-0.3012307130011579,4.200000000000001,298.15
153.1595154189313,-0.2930483420587591,4.199999999999999,298.15
153.16784875226466,-0.2851021181333864,4.199999999999999,298.15
153.176182085598,-0.2773976564847119,4.2,298.15
153.1845154189313,-0.2699321357754479,4.199999999999998,298.15
153.19284875226467,-0.2626689308941592,4.200000000000001,298.15
153.201182085598,-0.2555909229607136,4.199999999999999,298.15
153.20951541893132,-0.2486811667551621,4.199999999999999,298.15
153.21784875226464,-0.2419426012220413,4.200000000000001,298.15
153.226182085598,-0.2353875791520375,4.199999999999999,298.15
153.23451541893132,-0.2290195427204953,4.199999999999999,298.15
153.24284875226465,-0.2228417902928989,4.2,298.15
153.251182085598,-0.2168457621432707,4.199999999999998,298.15
153.25951541893133,-0.2110199733973193,4.1999999999999975,298.15
153.26784875226463,-0.205356553615721,4.200000000000005,298.15
153.27618208559798,-0.1998429329616293,4.19999999999999,298.15
153.2845154189313,-0.1944779228256461,4.1999999999999975,298.15
153.29284875226466,-0.1892459435611688,4.200000000000003,298.15
153.301182085598,-0.1841383420627939,4.199999999999998,298.15
153.3095154189313,-0.1791735369026076,4.199999999999999,298.15
153.31784875226467,-0.1743519759739619,4.199999999999998,298.15
153.326182085598,-0.1696703663868087,4.2,298.15
153.3315789353282,-0.1667166666666584,4.2,298.15
153.33157893532848,0.5,4.170197188321916,298.15
153.33991226866152,0.5,4.15715785740946,298.15
153.34824560199485,0.5,4.151074279671226,298.15
153.3565789353282,0.5,4.146840424275005,298.15
153.36491226866153,0.5,4.143463674437992,298.15
153.37324560199485,0.5,4.140566314973263,298.15
153.38157893532818,0.5,4.137977567170035,298.15
153.38991226866153,0.5,4.135613870962718,298.15
153.39824560199486,0.5,4.133426856013413,298.15
153.40657893532818,0.5,4.131385552647599,298.15
153.41491226866154,0.5,4.129468465424981,298.15
153.42324560199486,0.5,4.12765623074398,298.15
153.4315789353282,0.5,4.1259195979847,298.15
153.43991226866152,0.5,4.124253285559033,298.15
153.44824560199487,0.5,4.122653252310261,298.15
153.4565789353282,0.5,4.121117103468047,298.15
153.46491226866152,0.5,4.119641983432843,298.15
153.47324560199485,0.5,4.118224228671073,298.15
153.4815789353282,0.5,4.116854107823164,298.15
153.48991226866153,0.5,4.115517628803639,298.15
153.49824560199485,0.5,4.114214507160661,298.15
153.50657893532818,0.5,4.112949402705643,298.15
153.51491226866153,0.5,4.111724964771339,298.15
153.52324560199486,0.5,4.11054493035169,298.15
153.53157893532818,0.5,4.109408295956811,298.15
153.53991226866154,0.5,4.108309836634042,298.15
153.54824560199486,0.5,4.107235981587593,298.15
153.5565789353282,0.5,4.106185474130752,298.15
153.56491226866152,0.5,4.1051626688474965,298.15
153.57324560199487,0.5,4.104170758763281,298.15
153.5815789353282,0.5,4.103210952022376,298.15
153.58991226866152,0.5,4.102279999312776,298.15
153.59824560199485,0.5,4.101371704911615,298.15
153.6065789353282,0.5,4.100479949892046,298.15
153.61491226866153,0.5,4.099588831520655,298.15
153.62324560199485,0.5,4.098694327685489,298.15
153.63157893532818,0.5,4.097798562050576,298.15
153.63991226866153,0.5,4.096911348506079,298.15
153.64824560199486,0.5,4.096044949303433,298.15
153.65657893532818,0.5,4.095205869474039,298.15
153.66491226866154,0.5,4.094398605353034,298.15
153.67324560199486,0.5,4.093623283554687,298.15
153.6815789353282,0.5,4.092870855726865,298.15
153.68991226866152,0.5,4.092147568917701,298.15
153.69824560199487,0.5,4.091460828316906,298.15
153.7065789353282,0.5,4.090812030051527,298.15
153.71491226866152,0.5,4.090199096514384,298.15
153.72324560199485,0.5,4.089610697518211,298.15
153.7315789353282,0.5,4.089032822274933,298.15
153.73991226866153,0.5,4.088461036101499,298.15
153.74824560199485,0.5,4.087887563250238,298.15
153.75657893532818,0.5,4.08731404585253,298.15
153.76491226866153,0.5,4.086746310342665,298.15
153.77324560199486,0.5,4.086193996305337,298.15
153.78157893532818,0.5,4.085667541728414,298.15
153.78991226866154,0.5,4.085167694115647,298.15
153.79824560199486,0.5,4.08469359478401,298.15
153.8065789353282,0.5,4.084243870012525,298.15
153.81491226866152,0.5,4.083811208290164,298.15
153.82324560199487,0.5,4.083389209590609,298.15
153.8315789353282,0.5,4.082972311773213,298.15
153.83991226866152,0.5,4.082556100123266,298.15
153.84824560199485,0.5,4.082140703748561,298.15
153.8565789353282,0.5,4.081730443866803,298.15
153.86491226866153,0.5,4.081327926562198,298.15
153.87324560199485,0.5,4.080932483912069,298.15
153.88157893532818,0.5,4.08054641902341,298.15
153.88991226866153,0.5,4.0801690784801625,298.15
153.89824560199486,0.5,4.079798097090913,298.15
153.90657893532818,0.5,4.07943662451058,298.15
153.91491226866154,0.5,4.079096964657158,298.15
153.92324560199486,0.5,4.078788011455297,298.15
153.9315789353282,0.5,4.078514354323288,298.15
153.93991226866152,0.5,4.078274213477903,298.15
153.94824560199487,0.5,4.078058770612117,298.15
153.9565789353282,0.5,4.077853665912873,298.15
153.96491226866152,0.5,4.0776425871119,298.15
153.97324560199485,0.5,4.077416853492297,298.15
153.9815789353282,0.5,4.077175837907166,298.15
153.98991226866153,0.5,4.076921837271298,298.15
153.99824560199485,0.5,4.076659080718317,298.15
154.00657893532818,0.5,4.076393436426946,298.15
154.01491226866153,0.5,4.076131310140134,298.15
154.02324560199486,0.5,4.075877594169624,298.15
154.03157893532818,0.5,4.075635851056534,298.15
154.03991226866154,0.5,4.075404917549893,298.15
154.04824560199486,0.5,4.075187428151645,298.15
154.0565789353282,0.5,4.074991796546621,298.15
154.06491226866152,0.5,4.0748242177733145,298.15
154.07324560199487,0.5,4.074681813640425,298.15
154.0815789353282,0.5,4.074559337483263,298.15
154.08991226866152,0.5,4.074448774724962,298.15
154.09824560199485,0.5,4.074336648496917,298.15
154.1065789353282,0.5,4.0742132154506585,298.15
154.11491226866153,0.5,4.07407628886271,298.15
154.12324560199485,0.5,4.073925897472487,298.15
154.13157893532818,0.5,4.073759416550233,298.15
154.13991226866153,0.5,4.073576085348521,298.15
154.14824560199486,0.5,4.073381085797564,298.15
154.15657893532818,0.5,4.073181347727177,298.15
154.16491226866154,0.5,4.072979358503238,298.15
154.17324560199486,0.5,4.072778595286682,298.15
154.1815789353282,0.5,4.072582345416383,298.15
154.18991226866152,0.5,4.072394053139812,298.15
154.19824560199487,0.5,4.0722155212721525,298.15
154.2065789353282,0.5,4.072053005946756,298.15
154.21491226866152,0.5,4.071906651131988,298.15
154.22324560199485,0.5,4.0717703878914335,298.15
154.2315789353282,0.5,4.07163479432781,298.15
154.23991226866153,0.5,4.071495263868659,298.15
154.24824560199485,0.5,4.071346184092516,298.15
154.25657893532818,0.5,4.071186920039764,298.15
154.26491226866153,0.5,4.071022016651072,298.15
154.27324560199486,0.5,4.070854738799327,298.15
154.28157893532818,0.5,4.070686086923059,298.15
154.28991226866154,0.5,4.070519559752695,298.15
154.29824560199486,0.5,4.0703537539501,298.15
154.3065789353282,0.5,4.070184965878253,298.15
154.31491226866152,0.5,4.070014457409622,298.15
154.32324560199487,0.5,4.06984141053678,298.15
154.3315789353282,0.5,4.069659698703317,298.15
154.33991226866152,0.5,4.069469528463201,298.15
154.34824560199485,0.5,4.069274410622318,298.15
154.3565789353282,0.5,4.069076776628378,298.15
154.36491226866153,0.5,4.068878391050981,298.15
154.37324560199485,0.5,4.06867908526759,298.15
154.38157893532818,0.5,4.068471275538512,298.15
154.38991226866153,0.5,4.068246929399455,298.15
154.39824560199486,0.5,4.068010325708164,298.15
154.40657893532818,0.5,4.067766130223928,298.15
154.41491226866154,0.5,4.067516560179032,298.15
154.42324560199486,0.5,4.067264360545618,298.15
154.4315789353282,0.5,4.067012498776771,298.15
154.43991226866152,0.5,4.066760786751772,298.15
154.44824560199487,0.5,4.066505408709066,298.15
154.4565789353282,0.5,4.066245825252322,298.15
154.46491226866152,0.5,4.06597963724293,298.15
154.47324560199485,0.5,4.065703311955939,298.15
154.4815789353282,0.5,4.065413165098359,298.15
154.48991226866153,0.5,4.065108949522088,298.15
154.49824560199485,0.5,4.06478731382696,298.15
154.50657893532818,0.5,4.06444357091172,298.15
154.51491226866153,0.5,4.064075462850502,298.15
154.52324560199486,0.5,4.06368691656162,298.15
154.53157893532818,0.5,4.063287737182691,298.15
154.53991226866154,0.5,4.062885879375905,298.15
154.54824560199486,0.5,4.062486888063926,298.15
154.5565789353282,0.5,4.062096874946416,298.15
154.56491226866152,0.5,4.0617201899690105,298.15
154.57324560199487,0.5,4.061353960087825,298.15
154.5815789353282,0.5,4.0609926565808125,298.15
154.58991226866152,0.5,4.060629420285952,298.15
154.59824560199485,0.5,4.060253814701872,298.15
154.6065789353282,0.5,4.059861764774413,298.15
154.61491226866153,0.5,4.059452645649602,298.15
154.62324560199485,0.5,4.059026895122921,298.15
154.63157893532818,0.5,4.058585708971426,298.15
154.63991226866153,0.5,4.058131268814647,298.15
154.64824560199486,0.5,4.057668554908549,298.15
154.65657893532818,0.5,4.057203383256202,298.15
154.66491226866154,0.5,4.0567385940742415,298.15
154.67324560199486,0.5,4.056275177649474,298.15
154.6815789353282,0.5,4.055810678346296,298.15
154.68991226866152,0.5,4.055337295053304,298.15
154.69824560199487,0.5,4.054848959225156,298.15
154.7065789353282,0.5,4.054347628672918,298.15
154.71491226866152,0.5,4.053834914131734,298.15
154.72324560199485,0.5,4.0533107828832176,298.15
154.7315789353282,0.5,4.052776884999723,298.15
154.73991226866153,0.5,4.0522343011741855,298.15
154.74824560199485,0.5,4.051683347501745,298.15
154.75657893532818,0.5,4.051121427521185,298.15
154.76491226866153,0.5,4.050549319493911,298.15
154.77324560199486,0.5,4.0499706065454255,298.15
154.78157893532818,0.5,4.04938820094063,298.15
154.78991226866154,0.5,4.048800883591335,298.15
154.79824560199486,0.5,4.048208514761395,298.15
154.8065789353282,0.5,4.047611349972357,298.15
154.81491226866152,0.5,4.047006246553522,298.15
154.82324560199487,0.5,4.046392789798952,298.15
154.8315789353282,0.5,4.04577110550885,298.15
154.83991226866152,0.5,4.045141998858211,298.15
154.84824560199485,0.5,4.044506260378796,298.15
154.8565789353282,0.5,4.043863735059879,298.15
154.86491226866153,0.5,4.043215263535386,298.15
154.87324560199485,0.5,4.04256177617231,298.15
154.88157893532818,0.5,4.04190556855836,298.15
154.88991226866153,0.5,4.041250342903886,298.15
154.89824560199486,0.5,4.040599259773571,298.15
154.90657893532818,0.5,4.0399570891011125,298.15
154.91491226866154,0.5,4.039325694959016,298.15
154.92324560199486,0.5,4.038699498796524,298.15
154.9315789353282,0.5,4.038073136570112,298.15
154.93991226866152,0.5,4.037441972213559,298.15
154.94824560199487,0.5,4.03680171801477,298.15
154.9565789353282,0.5,4.036148469270069,298.15
154.96491226866152,0.5,4.035483247093591,298.15
154.97324560199485,0.5,4.034805778484087,298.15
154.9815789353282,0.5,4.034114048742957,298.15
154.98991226866153,0.5,4.033408832940047,298.15
154.99824560199485,0.5,4.032694729473171,298.15
155.00657893532818,0.5,4.031973400692174,298.15
155.01491226866153,0.5,4.031243484905566,298.15
155.02324560199486,0.5,4.030506042481276,298.15
155.03157893532818,0.5,4.029767546665683,298.15
155.03991226866154,0.5,4.02903288592975,298.15
155.04824560199486,0.5,4.02830235231878,298.15
155.0565789353282,0.5,4.027576344260467,298.15
155.06491226866152,0.5,4.026855890224098,298.15
155.07324560199487,0.5,4.026137361433364,298.15
155.0815789353282,0.5,4.02541621554252,298.15
155.08991226866152,0.5,4.024689751285223,298.15
155.09824560199485,0.5,4.023954403011608,298.15
155.1065789353282,0.5,4.0232087103355685,298.15
155.11491226866153,0.5,4.022457136167769,298.15
155.12324560199485,0.5,4.021705302256082,298.15
155.13157893532818,0.5,4.020956728432366,298.15
155.13991226866153,0.5,4.02021317084949,298.15
155.14824560199486,0.5,4.019473355175119,298.15
155.15657893532818,0.5,4.01873371961012,298.15
155.16491226866154,0.5,4.017990210230282,298.15
155.17324560199486,0.5,4.01723944672843,298.15
155.1815789353282,0.5,4.0164787585035535,298.15
155.18991226866152,0.5,4.015709273702413,298.15
155.19824560199487,0.5,4.014935166759472,298.15
155.2065789353282,0.5,4.014159714224472,298.15
155.21491226866152,0.5,4.013385684274684,298.15
155.22324560199485,0.5,4.012619585320364,298.15
155.2315789353282,0.5,4.011864971624923,298.15
155.23991226866153,0.5,4.011118233118168,298.15
155.24824560199485,0.5,4.010377281044416,298.15
155.25657893532818,0.5,4.009638788490491,298.15
155.26491226866153,0.5,4.008895522215411,298.15
155.27324560199486,0.5,4.008142281839005,298.15
155.28157893532818,0.5,4.007378100955532,298.15
155.28991226866154,0.5,4.00660519069522,298.15
155.29824560199486,0.5,4.005827053081065,298.15
155.3065789353282,0.5,4.005048881412277,298.15
155.31491226866152,0.5,4.004275964557172,298.15
155.32324560199487,0.5,4.003510449688292,298.15
155.3315789353282,0.5,4.002751643217247,298.15
155.33991226866152,0.5,4.001997689323894,298.15
155.34824560199485,0.5,4.001244553592652,298.15
155.3565789353282,0.5,4.000484862512867,298.15
155.36491226866153,0.5,3.999713190429209,298.15
155.37324560199485,0.5,3.998928706336015,298.15
155.38157893532818,0.5,3.9981311337124006,298.15
155.38991226866153,0.5,3.997322856421368,298.15
155.39824560199486,0.5,3.9965093043863016,298.15
155.40657893532818,0.5,3.9956942478373056,298.15
155.41491226866154,0.5,3.994881036161128,298.15
155.42324560199486,0.5,3.994074961494481,298.15
155.4315789353282,0.5,3.993279306224391,298.15
155.43991226866152,0.5,3.992494732786573,298.15
155.44824560199487,0.5,3.9917204254720495,298.15
155.4565789353282,0.5,3.990954073795692,298.15
155.46491226866152,0.5,3.990191964194112,298.15
155.47324560199485,0.5,3.989430698097175,298.15
155.4815789353282,0.5,3.98866682170232,298.15
155.48991226866153,0.5,3.987900420254655,298.15
155.49824560199485,0.5,3.987131431770143,298.15
155.50657893532818,0.5,3.98635872221646,298.15
155.51491226866153,0.5,3.9855827630369394,298.15
155.52324560199486,0.5,3.984806142314077,298.15
155.53157893532818,0.5,3.9840285014692434,298.15
155.53991226866154,0.5,3.983252756987984,298.15
155.54824560199486,0.5,3.982483547844868,298.15
155.5565789353282,0.5,3.98172253900397,298.15
155.56491226866152,0.5,3.980972093914479,298.15
155.57324560199487,0.5,3.9802332651332426,298.15
155.5815789353282,0.5,3.979498371758009,298.15
155.58991226866152,0.5,3.978758838551792,298.15
155.59824560199485,0.5,3.978006637303462,298.15
155.6065789353282,0.5,3.977231877168212,298.15
155.61491226866153,0.5,3.976431932214671,298.15
155.62324560199485,0.5,3.9756161574020954,298.15
155.63157893532818,0.5,3.97479701151257,298.15
155.63991226866153,0.5,3.973986877388877,298.15
155.64824560199486,0.5,3.97319744458782,298.15
155.65657893532818,0.5,3.9724353720510495,298.15
155.66491226866154,0.5,3.971703925033671,298.15
155.67324560199486,0.5,3.9710011524379447,298.15
155.6815789353282,0.5,3.9703140637759695,298.15
155.68991226866152,0.5,3.969629985960435,298.15
155.69824560199487,0.5,3.968932000604844,298.15
