Time,Current,Terminal Voltage,Ambient Temperature
305.7352802836372,-2.5,4.191000004958903,298.15
305.7436136169705,-2.5,4.192003317324632,298.15
305.75194695030393,-2.5,4.193280413165836,298.15
305.76028028363726,-2.5,4.194519311095117,298.15
305.7686136169706,-2.5,4.195562251993309,298.15
305.7769469503039,-2.5,4.196874331566511,298.15
305.78528028363723,-2.5,4.198109260548502,298.15
305.79361361697056,-2.5,4.199881508356796,298.15
305.79411490333706,-2.5,4.199990000000007,298.15
305.79411490333734,-2.500388509644563,4.200000000000003,298.15
305.8024482366704,-2.448364426744737,4.200000000000003,298.15
305.8107815700037,-2.392854971451103,4.199999999999997,298.15
305.81911490333704,-2.338353281263148,4.200000000000001,298.15
305.8274482366704,-2.290962319291236,4.199999999999998,298.15
305.83578157000375,-2.233445857343036,4.200000000000001,298.15
305.8441149033371,-2.176222247403069,4.199999999999999,298.15
305.8524482366704,-2.126945858437616,4.199999999999999,298.15
305.8607815700037,-2.067084461728136,4.200000000000002,298.15
305.86911490333705,-2.006146820502443,4.200000000000001,298.15
305.8774482366704,-1.9519514547376624,4.2,298.15
305.88578157000376,-1.89965591257796,4.199999999999999,298.15
305.8941149033371,-1.8426279870739235,4.1999999999999975,298.15
305.9024482366704,-1.7893611300005023,4.199999999999999,298.15
305.91078157000373,-1.7389465262853696,4.199999999999999,298.15
305.91911490333706,-1.6870534171978389,4.200000000000001,298.15
305.9274482366704,-1.6366298151898204,4.199999999999999,298.15
305.9357815700037,-1.5872852862460838,4.199999999999999,298.15
305.94411490333704,-1.540831140043155,4.2,298.15
305.9524482366704,-1.4949177496310244,4.199999999999999,298.15
305.96078157000375,-1.450940848158886,4.199999999999999,298.15
305.9691149033371,-1.4094241920445016,4.199999999999999,298.15
305.9774482366704,-1.3658950355900763,4.2,298.15
305.9857815700037,-1.3217423331883829,4.199999999999999,298.15
305.99411490333705,-1.2815656220066676,4.200000000000001,298.15
306.0024482366704,-1.2448748146687725,4.199999999999999,298.15
306.01078157000376,-1.2086173004365055,4.200000000000001,298.15
306.0191149033371,-1.1732607638201635,4.199999999999998,298.15
306.0274482366704,-1.1396607998823691,4.199999999999999,298.15
306.03578157000373,-1.1062801091883732,4.200000000000001,298.15
306.04411490333706,-1.0724399419083075,4.199999999999999,298.15
306.0524482366704,-1.0400728602075406,4.199999999999999,298.15
306.0607815700037,-1.0096598275977453,4.200000000000001,298.15
306.06911490333704,-0.980187282590354,4.199999999999999,298.15
306.0774482366704,-0.9517596238969056,4.200000000000001,298.15
306.08578157000375,-0.9251588687550674,4.200000000000001,298.15
306.0941149033371,-0.8997318543603396,4.199999999999999,298.15
306.1024482366704,-0.874179067663323,4.2,298.15
306.1107815700037,-0.8481767211629808,4.199999999999999,298.15
306.11911490333705,-0.8223591556340409,4.200000000000001,298.15
306.1274482366704,-0.7976234642008201,4.200000000000001,298.15
306.13578157000376,-0.7744830299030013,4.199999999999999,298.15
306.1441149033371,-0.7529730952770464,4.199999999999999,298.15
306.1524482366704,-0.7326378834706103,4.199999999999999,298.15
306.16078157000373,-0.7128242074705795,4.199999999999999,298.15
306.16911490333706,-0.6930866374712741,4.199999999999999,298.15
306.1774482366704,-0.6732560004183219,4.200000000000001,298.15
306.1857815700037,-0.6536232673378353,4.2,298.15
306.19411490333704,-0.6347347457773246,4.199999999999999,298.15
306.2024482366704,-0.6169487111321298,4.199999999999999,298.15
306.21078157000375,-0.6002798935911479,4.200000000000001,298.15
306.2191149033371,-0.5844318078971513,4.1999999999999975,298.15
306.2274482366704,-0.5687720749616318,4.2,298.15
306.2357815700037,-0.5529271981946591,4.200000000000001,298.15
306.24411490333705,-0.5367886427863688,4.2,298.15
306.2524482366704,-0.5205250411494965,4.199999999999999,298.15
306.26078157000376,-0.5046621019572097,4.199999999999999,298.15
306.2691149033371,-0.4896177177447872,4.2,298.15
306.2774482366704,-0.4755082459586297,4.200000000000001,298.15
306.28578157000373,-0.462253908976131,4.199999999999999,298.15
306.29411490333706,-0.4496777926968994,4.199999999999999,298.15
306.3024482366704,-0.4375790615508401,4.1999999999999975,298.15
306.3107815700037,-0.4258705138710716,4.200000000000001,298.15
306.31911490333704,-0.4144342931079373,4.200000000000002,298.15
306.3274482366704,-0.4032236518935259,4.2,298.15
306.33578157000375,-0.3922309760098462,4.199999999999999,298.15
306.3441149033371,-0.3814778936989296,4.200000000000001,298.15
306.3524482366704,-0.3709586148880444,4.199999999999998,298.15
306.3607815700037,-0.3606657205754704,4.199999999999999,298.15
306.36911490333705,-0.3506321155375635,4.2,298.15
306.3774482366704,-0.3409006359048458,4.199999999999999,298.15
306.38578157000376,-0.3314766975744104,4.199999999999999,298.15
306.3941149033371,-0.322336757990883,4.199999999999999,298.15
306.4024482366704,-0.3134676757806353,4.199999999999998,298.15
306.41078157000373,-0.3048737310681375,4.200000000000001,298.15
306.41911490333706,-0.2965513440867671,4.2,298.15
306.4274482366704,-0.2884749895760102,4.199999999999999,298.15
306.4357815700037,-0.2806282249924687,4.200000000000001,298.15
306.44411490333704,-0.2730206439624084,4.200000000000001,298.15
306.4524482366704,-0.2656462672257139,4.199999999999998,298.15
306.46078157000375,-0.2584905367168634,4.200000000000001,298.15
306.4691149033371,-0.2515299580445319,4.200000000000005,298.15
306.4774482366704,-0.2447452147085911,4.200000000000004,298.15
306.4857815700037,-0.2381263769565871,4.200000000000002,298.15
306.49411490333705,-0.2316829764570138,4.2,298.15
306.5024482366704,-0.2254221031445283,4.2,298.15
306.51078157000376,-0.2193473307726979,4.199999999999999,298.15
306.5191149033371,-0.2134554676843661,4.199999999999999,298.15
306.5274482366704,-0.2077377005695835,4.199999999999999,298.15
306.53578157000373,-0.2021816947657946,4.200000000000001,298.15
306.54411490333706,-0.1967784172805785,4.199999999999999,298.15
306.5524482366704,-0.1915195163273984,4.2,298.15
306.5607815700037,-0.1863977238555308,4.199999999999999,298.15
306.56911490333704,-0.1813990616435369,4.199999999999999,298.15
306.5774482366704,-0.1765218120412875,4.199999999999999,298.15
306.58578157000375,-0.171779661514463,4.200000000000001,298.15
306.5941149033371,-0.1671718673285902,4.199999999999999,298.15
306.5949521239423,-0.1667166666666619,4.199999999999999,298.15
306.5949521239425,0.5,4.170134212715394,298.15
306.6032854572756,0.5,4.157090476292069,298.15
306.61161879060893,0.5,4.151006583995284,298.15
306.61995212394226,0.5,4.146773993629536,298.15
306.6282854572756,0.5,4.143396424182287,298.15
306.6366187906089,0.5,4.140493989903048,298.15
306.6449521239423,0.5,4.13790185227742,298.15
306.6532854572756,0.5,4.135536809897156,298.15
306.66161879060894,0.5,4.133349659832188,298.15
306.66995212394227,0.5,4.131309145878522,298.15
306.6782854572756,0.5,4.1293915139801225,298.15
306.6866187906089,0.5,4.127569701577967,298.15
306.69495212394224,0.5,4.125826248988091,298.15
306.7032854572756,0.5,4.124154877707083,298.15
306.7116187906089,0.5,4.12255260433388,298.15
306.7199521239423,0.5,4.121015747831962,298.15
306.7282854572756,0.5,4.119541617326893,298.15
306.73661879060893,0.5,4.118124732078611,298.15
306.74495212394226,0.5,4.1167510243555245,298.15
306.7532854572756,0.5,4.115412658926289,298.15
306.7616187906089,0.5,4.114112503317186,298.15
306.7699521239423,0.5,4.112855066215095,298.15
306.7782854572756,0.5,4.111641407993929,298.15
306.78661879060894,0.5,4.110473081321951,298.15
306.79495212394227,0.5,4.1093463183758026,298.15
306.8032854572756,0.5,4.108253103008848,298.15
306.8116187906089,0.5,4.107182066524748,298.15
306.81995212394224,0.5,4.106135799574563,298.15
306.8282854572756,0.5,4.105115408138562,298.15
306.8366187906089,0.5,4.104120567170705,298.15
306.8449521239423,0.5,4.10314924067424,298.15
306.8532854572756,0.5,4.102196027441419,298.15
306.86161879060893,0.5,4.10125721360741,298.15
306.86995212394226,0.5,4.100327428449552,298.15
306.8782854572756,0.5,4.099399695946643,298.15
306.8866187906089,0.5,4.098479233109938,298.15
306.8949521239423,0.5,4.097573516458708,298.15
306.9032854572756,0.5,4.096694662156976,298.15
306.91161879060894,0.5,4.095851357888897,298.15
306.91995212394227,0.5,4.095047910325343,298.15
306.9282854572756,0.5,4.094285254698876,298.15
306.9366187906089,0.5,4.093551877640882,298.15
306.94495212394224,0.5,4.092835272606246,298.15
306.9532854572756,0.5,4.092140256692607,298.15
306.9616187906089,0.5,4.091468296462212,298.15
306.9699521239423,0.5,4.0908180664483424,298.15
306.9782854572756,0.5,4.090188270313252,298.15
306.98661879060893,0.5,4.089574047835305,298.15
306.99495212394226,0.5,4.088973806137705,298.15
307.0032854572756,0.5,4.088388382370993,298.15
307.0116187906089,0.5,4.0878083020566685,298.15
307.0199521239423,0.5,4.087235902022395,298.15
307.0282854572756,0.5,4.086675880336207,298.15
307.03661879060894,0.5,4.086136452717463,298.15
307.04495212394227,0.5,4.08561998324171,298.15
307.0532854572756,0.5,4.085124561291875,298.15
307.0616187906089,0.5,4.084651060469341,298.15
307.06995212394224,0.5,4.084196851772498,298.15
307.0782854572756,0.5,4.083754252475503,298.15
307.0866187906089,0.5,4.083316515521271,298.15
307.0949521239423,0.5,4.08287984936667,298.15
307.1032854572756,0.5,4.082441067080742,298.15
307.11161879060893,0.5,4.082003778405143,298.15
307.11995212394226,0.5,4.081576559115834,298.15
307.1282854572756,0.5,4.081164602237051,298.15
307.1366187906089,0.5,4.080770735666016,298.15
307.1449521239423,0.5,4.080396442630445,298.15
307.1532854572756,0.5,4.080039132377996,298.15
307.16161879060894,0.5,4.079696182903243,298.15
307.16995212394227,0.5,4.07937093313366,298.15
307.1782854572756,0.5,4.0790678343001705,298.15
307.1866187906089,0.5,4.078787852116687,298.15
307.19495212394224,0.5,4.07853084957474,298.15
307.2032854572756,0.5,4.078290898924721,298.15
307.2116187906089,0.5,4.078059191149727,298.15
307.2199521239423,0.5,4.077824880353489,298.15
307.2282854572756,0.5,4.0775790288317175,298.15
307.23661879060893,0.5,4.077318803329446,298.15
307.24495212394226,0.5,4.077043749525776,298.15
307.2532854572756,0.5,4.076759368095629,298.15
307.2616187906089,0.5,4.076475051861083,298.15
307.2699521239423,0.5,4.0762022475792765,298.15
307.2782854572756,0.5,4.075946295137243,298.15
307.28661879060894,0.5,4.075712357830966,298.15
307.29495212394227,0.5,4.075502041105484,298.15
307.3032854572756,0.5,4.075313091985093,298.15
307.3116187906089,0.5,4.075143569693443,298.15
307.31995212394224,0.5,4.074992420195484,298.15
307.3282854572756,0.5,4.074855989165945,298.15
307.3366187906089,0.5,4.0747243219651,298.15
307.3449521239423,0.5,4.074590280618766,298.15
307.3532854572756,0.5,4.074447511401612,298.15
307.36161879060893,0.5,4.0742940800287,298.15
307.36995212394226,0.5,4.074131908293998,298.15
307.3782854572756,0.5,4.0739627785796255,298.15
307.3866187906089,0.5,4.073784401517884,298.15
307.3949521239423,0.5,4.073595573645613,298.15
307.4032854572756,0.5,4.073399918814292,298.15
307.41161879060894,0.5,4.073203047154016,298.15
307.41995212394227,0.5,4.073009085254499,298.15
307.4282854572756,0.5,4.072822363127145,298.15
307.4366187906089,0.5,4.072646484066812,298.15
307.44495212394224,0.5,4.072481287029346,298.15
307.4532854572756,0.5,4.072322478392925,298.15
307.4616187906089,0.5,4.072169920346601,298.15
307.4699521239423,0.5,4.072025048369692,298.15
307.4782854572756,0.5,4.071883448589441,298.15
307.48661879060893,0.5,4.071737416453782,298.15
307.49495212394226,0.5,4.071584711938597,298.15
307.5032854572756,0.5,4.071428567339558,298.15
307.5116187906089,0.5,4.071267807801013,298.15
307.5199521239423,0.5,4.071105491911473,298.15
307.5282854572756,0.5,4.070946399787566,298.15
307.53661879060894,0.5,4.07079212413305,298.15
307.54495212394227,0.5,4.070638909165548,298.15
307.5532854572756,0.5,4.070484115370935,298.15
307.5616187906089,0.5,4.070323398220916,298.15
307.56995212394224,0.5,4.070154564643221,298.15
307.5782854572756,0.5,4.069979480223105,298.15
307.5866187906089,0.5,4.069795575052216,298.15
307.5949521239423,0.5,4.069600987313235,298.15
307.6032854572756,0.5,4.069399989324507,298.15
307.61161879060893,0.5,4.069195824489071,298.15
307.61995212394226,0.5,4.0689911022098775,298.15
307.6282854572756,0.5,4.068788738712467,298.15
307.6366187906089,0.5,4.068587082927289,298.15
307.6449521239423,0.5,4.068376449921324,298.15
307.6532854572756,0.5,4.068154139419532,298.15
307.66161879060894,0.5,4.067925502146906,298.15
307.66995212394227,0.5,4.067693433237896,298.15
307.6782854572756,0.5,4.067456971850313,298.15
307.6866187906089,0.5,4.067217478619385,298.15
307.69495212394224,0.5,4.066976256779656,298.15
307.7032854572756,0.5,4.066730159124953,298.15
307.7116187906089,0.5,4.066476209562053,298.15
307.7199521239423,0.5,4.066212193292667,298.15
307.7282854572756,0.5,4.065934423001928,298.15
307.73661879060893,0.5,4.065638024959305,298.15
307.74495212394226,0.5,4.065320936379245,298.15
307.7532854572756,0.5,4.064985116470375,298.15
307.7616187906089,0.5,4.064632568643103,298.15
307.7699521239423,0.5,4.064265187857702,298.15
307.7782854572756,0.5,4.063885787276458,298.15
307.78661879060894,0.5,4.063502238698005,298.15
307.79495212394227,0.5,4.063122491544419,298.15
307.8032854572756,0.5,4.062752790158375,298.15
307.8116187906089,0.5,4.0623923678171,298.15
307.81995212394224,0.5,4.062040840294509,298.15
307.8282854572756,0.5,4.061693855942295,298.15
307.8366187906089,0.5,4.061343810032451,298.15
307.8449521239423,0.5,4.060982457602329,298.15
307.8532854572756,0.5,4.060602831075473,298.15
307.86161879060893,0.5,4.060203450550612,298.15
307.86995212394226,0.5,4.059789821376263,298.15
307.8782854572756,0.5,4.0593645763259225,298.15
307.8866187906089,0.5,4.05892911285416,298.15
307.8949521239423,0.5,4.05848541956679,298.15
307.9032854572756,0.5,4.058034476003693,298.15
307.91161879060894,0.5,4.057577566668147,298.15
307.91995212394227,0.5,4.057118883949892,298.15
307.9282854572756,0.5,4.056661288733734,298.15
307.9366187906089,0.5,4.056203948260365,298.15
307.94495212394224,0.5,4.0557408736476415,298.15
307.9532854572756,0.5,4.055264757057858,298.15
307.9616187906089,0.5,4.054773069756246,298.15
307.9699521239423,0.5,4.054267547465313,298.15
307.9782854572756,0.5,4.053747460729191,298.15
307.98661879060893,0.5,4.053214825833946,298.15
307.99495212394226,0.5,4.052672116639812,298.15
308.0032854572756,0.5,4.052122041968799,298.15
308.0116187906089,0.5,4.051564635576488,298.15
308.0199521239423,0.5,4.050999812989248,298.15
308.0282854572756,0.5,4.050429490047391,298.15
308.03661879060894,0.5,4.049857981268179,298.15
308.04495212394227,0.5,4.049284676581832,298.15
308.0532854572756,0.5,4.048705520749236,298.15
308.0616187906089,0.5,4.048120239754588,298.15
308.06995212394224,0.5,4.047524898656414,298.15
308.0782854572756,0.5,4.046916377356185,298.15
308.0866187906089,0.5,4.046294781170197,298.15
308.0949521239423,0.5,4.045663703853781,298.15
308.1032854572756,0.5,4.045026861942603,298.15
308.11161879060893,0.5,4.044387951347285,298.15
308.11995212394226,0.5,4.04374936595301,298.15
308.1282854572756,0.5,4.043112777920539,298.15
308.1366187906089,0.5,4.042479160984762,298.15
308.1449521239423,0.5,4.041849735960603,298.15
308.1532854572756,0.5,4.041224015236503,298.15
308.16161879060894,0.5,4.040600443698281,298.15
308.16995212394227,0.5,4.039978768210718,298.15
308.1782854572756,0.5,4.039355446210164,298.15
308.1866187906089,0.5,4.038723741588148,298.15
308.19495212394224,0.5,4.038082023058104,298.15
308.2032854572756,0.5,4.037430025751085,298.15
308.2116187906089,0.5,4.036767342982804,298.15
308.2199521239423,0.5,4.036095055055871,298.15
308.2282854572756,0.5,4.03541431433638,298.15
308.23661879060893,0.5,4.034723367845688,298.15
308.24495212394226,0.5,4.034020583491334,298.15
308.2532854572756,0.5,4.033310489834069,298.15
308.2616187906089,0.5,4.03259667145287,298.15
308.2699521239423,0.5,4.031878182951944,298.15
308.2782854572756,0.5,4.031154158527121,298.15
308.28661879060894,0.5,4.030426777752995,298.15
308.29495212394227,0.5,4.0296994412308855,298.15
308.3032854572756,0.5,4.0289725154682845,298.15
308.3116187906089,0.5,4.02824631486401,298.15
308.31995212394224,0.5,4.027521217952156,298.15
308.3282854572756,0.5,4.02679785986376,298.15
308.3366187906089,0.5,4.026073283910629,298.15
308.3449521239423,0.5,4.02534692056932,298.15
308.3532854572756,0.5,4.024617092713003,298.15
308.36161879060893,0.5,4.023879609922142,298.15
308.36995212394226,0.5,4.023134842287101,298.15
308.3782854572756,0.5,4.022386777696104,298.15
308.3866187906089,0.5,4.021638187895075,298.15
308.3949521239423,0.5,4.020889373032796,298.15
308.4032854572756,0.5,4.020141050053303,298.15
308.41161879060894,0.5,4.019391055790315,298.15
308.41995212394227,0.5,4.018638059043992,298.15
308.4282854572756,0.5,4.017881099232362,298.15
308.4366187906089,0.5,4.017121151758004,298.15
308.44495212394224,0.5,4.016358333461602,298.15
308.4532854572756,0.5,4.015595800698659,298.15
308.4616187906089,0.5,4.014836857400317,298.15
308.4699521239423,0.5,4.014082192189862,298.15
308.4782854572756,0.5,4.013331837783028,298.15
308.48661879060893,0.5,4.012586645626131,298.15
308.49495212394226,0.5,4.011842509158122,298.15
308.5032854572756,0.5,4.0110952726385865,298.15
308.5116187906089,0.5,4.010342811668361,298.15
308.5199521239423,0.5,4.009584314024957,298.15
308.5282854572756,0.5,4.008818620565612,298.15
308.53661879060894,0.5,4.008048266930964,298.15
308.54495212394227,0.5,4.0072753599393485,298.15
308.5532854572756,0.5,4.006502103859206,298.15
308.5616187906089,0.5,4.005731787874191,298.15
308.56995212394224,0.5,4.004967007345166,298.15
308.5782854572756,0.5,4.0042077904224165,298.15
308.5866187906089,0.5,4.003451441212391,298.15
308.5949521239423,0.5,4.002695949019101,298.15
308.6032854572756,0.5,4.001938875519146,298.15
308.61161879060893,0.5,4.001175038149602,298.15
308.61995212394226,0.5,4.000400131591775,298.15
308.6282854572756,0.5,3.999614017445433,298.15
308.6366187906089,0.5,3.998817624767734,298.15
308.6449521239423,0.5,3.998011848326148,298.15
308.6532854572756,0.5,3.9972011223385095,298.15
308.66161879060894,0.5,3.9963898200946266,298.15
308.66995212394227,0.5,3.995579844715882,298.15
308.6782854572756,0.5,3.994774753424607,298.15
308.6866187906089,0.5,3.993978913905056,298.15
308.69495212394224,0.5,3.993193963418415,298.15
308.7032854572756,0.5,3.992420098260216,298.15
308.7116187906089,0.5,3.991655738438725,298.15
308.7199521239423,0.5,3.990896954637308,298.15
308.7282854572756,0.5,3.990138272708323,298.15
308.73661879060893,0.5,3.9893756786037935,298.15
308.74495212394226,0.5,3.988606454465326,298.15
308.7532854572756,0.5,3.987830850783702,298.15
308.7616187906089,0.5,3.987049852869207,298.15
308.7699521239423,0.5,3.986266023446287,298.15
308.7782854572756,0.5,3.985484480009201,298.15
308.78661879060894,0.5,3.984708171721176,298.15
308.79495212394227,0.5,3.9839379464323774,298.15
308.8032854572756,0.5,3.9831778073938606,298.15
308.8116187906089,0.5,3.982428360762265,298.15
308.81995212394224,0.5,3.981684596983525,298.15
308.8282854572756,0.5,3.980942465473999,298.15
308.8366187906089,0.5,3.980196290367783,298.15
308.8449521239423,0.5,3.979435832369684,298.15
308.8532854572756,0.5,3.978656915983389,298.15
308.86161879060893,0.5,3.977860177416763,298.15
308.86995212394226,0.5,3.977048083728763,298.15
308.8782854572756,0.5,3.9762303812109456,298.15
308.8866187906089,0.5,3.9754183158556176,298.15
308.8949521239423,0.5,3.974622949118231,298.15
308.9032854572756,0.5,3.973857413887119,298.15
308.91161879060894,0.5,3.973125353415239,298.15
308.91995212394227,0.5,3.972420074258748,298.15
308.9282854572756,0.5,3.9717313344599994,298.15
308.9366187906089,0.5,3.971041329684717,298.15
308.94495212394224,0.5,3.970331743406171,298.15
308.9532854572756,0.5,3.969590376260319,298.15
308.9616187906089,0.5,3.968818289218211,298.15
