Time,Current,Terminal Voltage,Ambient Temperature
1378.2908386659467,-2.5,4.191152060215922,298.15
1378.29917199928,-2.5,4.192435585411824,298.15
1378.3075053326131,-2.5,4.193619650580158,298.15
1378.3158386659468,-2.5,4.1948988789458586,298.15
1378.32417199928,-2.5,4.195836745261468,298.15
1378.3325053326134,-2.5,4.197280355789143,298.15
1378.3408386659466,-2.5,4.198346371397806,298.15
1378.34917199928,-2.5,4.199699154664932,298.15
1378.3510023147426,-2.5,4.199989999999987,298.15
1378.3510023147428,-2.500377330072499,4.200000000000001,298.15
1378.359335648076,-2.4600860789487293,4.2,298.15
1378.3676689814092,-2.408874720406486,4.200000000000001,298.15
1378.376002314743,-2.365517760249964,4.199999999999999,298.15
1378.384335648076,-2.320893865222726,4.2,298.15
1378.392668981409,-2.266598848630959,4.2,298.15
1378.4010023147428,-2.2198392742385,4.199999999999999,298.15
1378.409335648076,-2.171185134482067,4.199999999999999,298.15
1378.4176689814094,-2.113871557957716,4.199999999999999,298.15
1378.4260023147426,-2.064360556228358,4.199999999999999,298.15
1378.434335648076,-2.0150073455998547,4.199999999999999,298.15
1378.4426689814093,-1.9561317965031728,4.2,298.15
1378.4510023147427,-1.900244847170862,4.199999999999999,298.15
1378.459335648076,-1.8517356096558129,4.199999999999999,298.15
1378.4676689814094,-1.8008241304256698,4.199999999999999,298.15
1378.4760023147426,-1.748469937027938,4.200000000000001,298.15
1378.484335648076,-1.699496734597394,4.200000000000001,298.15
1378.4926689814092,-1.6505995152781892,4.200000000000001,298.15
1378.501002314743,-1.602821785542694,4.200000000000001,298.15
1378.509335648076,-1.5568044457799843,4.199999999999999,298.15
1378.517668981409,-1.5110493031604924,4.199999999999999,298.15
1378.5260023147428,-1.4664866866560562,4.200000000000001,298.15
1378.534335648076,-1.4230647873707176,4.1999999999999975,298.15
1378.5426689814094,-1.3825527631548256,4.200000000000002,298.15
1378.5510023147426,-1.343859059345456,4.2,298.15
1378.559335648076,-1.3031778089546404,4.199999999999999,298.15
1378.5676689814093,-1.2619134011396105,4.199999999999999,298.15
1378.5760023147427,-1.2237666444240436,4.200000000000001,298.15
1378.584335648076,-1.1887966206568554,4.199999999999999,298.15
1378.5926689814094,-1.1548163666156583,4.199999999999998,298.15
1378.6010023147426,-1.121472169311717,4.200000000000001,298.15
1378.609335648076,-1.0898028405235354,4.200000000000001,298.15
1378.6176689814092,-1.0589150536816037,4.199999999999999,298.15
1378.626002314743,-1.027494387397505,4.2,298.15
1378.634335648076,-0.996521587813282,4.199999999999999,298.15
1378.642668981409,-0.9672822672850362,4.200000000000001,298.15
1378.6510023147428,-0.9393388742390396,4.199999999999999,298.15
1378.659335648076,-0.9122544587379368,4.2,298.15
1378.6676689814094,-0.8865263891452679,4.200000000000001,298.15
1378.6760023147426,-0.8623671730402,4.2,298.15
1378.684335648076,-0.838945847084108,4.200000000000001,298.15
1378.6926689814093,-0.8151715255299806,4.2,298.15
1378.7010023147427,-0.7910892809342889,4.2,298.15
1378.709335648076,-0.7672672381322975,4.199999999999999,298.15
1378.7176689814094,-0.7444770565351171,4.199999999999999,298.15
1378.7260023147426,-0.7231312407032959,4.200000000000001,298.15
1378.734335648076,-0.7032415663316178,4.200000000000001,298.15
1378.7426689814092,-0.6844385788132827,4.199999999999999,298.15
1378.751002314743,-0.6661713585832463,4.199999999999999,298.15
1378.759335648076,-0.6480704889363015,4.199999999999999,298.15
1378.767668981409,-0.6299175167887959,4.199999999999999,298.15
1378.7760023147428,-0.6118590287922286,4.199999999999999,298.15
1378.784335648076,-0.5942514557470391,4.199999999999999,298.15
1378.7926689814094,-0.5774955135033847,4.2,298.15
1378.8010023147426,-0.561705824090672,4.199999999999999,298.15
1378.809335648076,-0.5468445917484936,4.200000000000001,298.15
1378.8176689814093,-0.5325458463691055,4.200000000000001,298.15
1378.8260023147427,-0.5183573945359511,4.199999999999999,298.15
1378.834335648076,-0.5040363603244864,4.200000000000001,298.15
1378.8426689814094,-0.4895189978244701,4.199999999999999,298.15
1378.8510023147426,-0.474913438724418,4.199999999999999,298.15
1378.859335648076,-0.460592974946341,4.200000000000001,298.15
1378.8676689814092,-0.4469212690217966,4.1999999999999975,298.15
1378.876002314743,-0.4340251922539039,4.199999999999999,298.15
1378.884335648076,-0.4218769629539692,4.2,298.15
1378.892668981409,-0.4103779043017221,4.200000000000001,298.15
1378.9010023147428,-0.3993702145115879,4.200000000000001,298.15
1378.909335648076,-0.3887424509458613,4.200000000000003,298.15
1378.9176689814094,-0.3784346657505233,4.200000000000002,298.15
1378.9260023147426,-0.3683664864674215,4.200000000000002,298.15
1378.934335648076,-0.3585059535656379,4.199999999999999,298.15
1378.9426689814093,-0.3488417986502485,4.200000000000001,298.15
1378.9510023147427,-0.3393897077188681,4.200000000000001,298.15
1378.959335648076,-0.3301474298582047,4.1999999999999975,298.15
1378.9676689814094,-0.3211024899463331,4.200000000000001,298.15
1378.9760023147426,-0.312263386070456,4.200000000000005,298.15
1378.984335648076,-0.3036640957086216,4.199999999999999,298.15
1378.9926689814092,-0.2953257720923087,4.199999999999999,298.15
1379.001002314743,-0.2872420869217548,4.200000000000001,298.15
1379.009335648076,-0.279394945540418,4.199999999999999,298.15
1379.017668981409,-0.2717750239325731,4.200000000000001,298.15
1379.0260023147428,-0.264384255466655,4.2,298.15
1379.034335648076,-0.2572188521213561,4.200000000000001,298.15
1379.0426689814094,-0.250264741084543,4.199999999999999,298.15
1379.0510023147426,-0.2435036595681161,4.199999999999998,298.15
1379.059335648076,-0.2369426099955709,4.2,298.15
1379.0676689814093,-0.2305857753901307,4.199999999999999,298.15
1379.0760023147427,-0.2244223123812264,4.199999999999999,298.15
1379.084335648076,-0.2184387034504506,4.199999999999999,298.15
1379.0926689814094,-0.212618132454699,4.200000000000001,298.15
1379.1010023147426,-0.2069450745400021,4.199999999999999,298.15
1379.109335648076,-0.2014090009924106,4.199999999999999,298.15
1379.1176689814092,-0.1960099357179509,4.2,298.15
1379.126002314743,-0.1907536572240445,4.199999999999999,298.15
1379.134335648076,-0.1856410859744753,4.2,298.15
1379.142668981409,-0.1806785157009979,4.200000000000001,298.15
1379.1510023147428,-0.1758618796877521,4.2,298.15
1379.159335648076,-0.171200240020139,4.199999999999999,298.15
1379.1675708960786,-0.1667166666665414,4.2,298.15
1379.1675708960788,0.5,4.169887988077095,298.15
1379.1759042294118,0.5,4.156830244183737,298.15
1379.1842375627452,0.5,4.150726363315823,298.15
1379.192570896079,0.5,4.1464680147148645,298.15
1379.200904229412,0.5,4.143067960855543,298.15
1379.209237562745,0.5,4.140158564842492,298.15
1379.2175708960783,0.5,4.137568518294672,298.15
1379.225904229412,0.5,4.135208358997767,298.15
1379.2342375627452,0.5,4.133022581257331,298.15
1379.2425708960786,0.5,4.130969841750797,298.15
1379.2509042294118,0.5,4.129030875658803,298.15
1379.2592375627453,0.5,4.127192013816733,298.15
1379.2675708960785,0.5,4.125443028517627,298.15
1379.275904229412,0.5,4.123775749828018,298.15
1379.2842375627451,0.5,4.12218349817769,298.15
1379.2925708960786,0.5,4.120656826220598,298.15
1379.3009042294118,0.5,4.119180797533524,298.15
1379.3092375627452,0.5,4.117754854004357,298.15
1379.317570896079,0.5,4.116379336910782,298.15
1379.325904229412,0.5,4.115053241755308,298.15
1379.334237562745,0.5,4.1137757168715074,298.15
1379.3425708960783,0.5,4.11254526575647,298.15
1379.350904229412,0.5,4.111355497342197,298.15
1379.3592375627452,0.5,4.110194952926376,298.15
1379.3675708960786,0.5,4.109057200945381,298.15
1379.3759042294118,0.5,4.107942126631519,298.15
1379.3842375627453,0.5,4.106847725067935,298.15
1379.3925708960785,0.5,4.105771901797077,298.15
1379.400904229412,0.5,4.104715937052724,298.15
1379.4092375627451,0.5,4.103680473180798,298.15
1379.4175708960786,0.5,4.102665575704975,298.15
1379.4259042294118,0.5,4.101663369662597,298.15
1379.4342375627452,0.5,4.100678431285761,298.15
1379.442570896079,0.5,4.099717486695935,298.15
1379.450904229412,0.5,4.098788839733428,298.15
1379.459237562745,0.5,4.097903247530062,298.15
1379.4675708960783,0.5,4.0970623971923565,298.15
1379.475904229412,0.5,4.0962630119661085,298.15
1379.4842375627452,0.5,4.095492193775634,298.15
1379.4925708960786,0.5,4.094731484292463,298.15
1379.5009042294118,0.5,4.093979749536086,298.15
1379.5092375627453,0.5,4.093243286494554,298.15
1379.5175708960785,0.5,4.092525469305107,298.15
1379.525904229412,0.5,4.0918310252235575,298.15
1379.5342375627451,0.5,4.091160304474624,298.15
1379.5425708960786,0.5,4.090511302332573,298.15
1379.5509042294118,0.5,4.089879218311456,298.15
1379.5592375627452,0.5,4.089253687244629,298.15
1379.567570896079,0.5,4.088640186427257,298.15
1379.575904229412,0.5,4.08804214691941,298.15
1379.584237562745,0.5,4.087461370223288,298.15
1379.5925708960783,0.5,4.086900730176616,298.15
1379.600904229412,0.5,4.086357178923139,298.15
1379.6092375627452,0.5,4.085830974585199,298.15
1379.6175708960786,0.5,4.085321744967571,298.15
1379.6259042294118,0.5,4.08482284456435,298.15
1379.6342375627453,0.5,4.084327545470082,298.15
1379.6425708960785,0.5,4.083834315263555,298.15
1379.650904229412,0.5,4.083342557382237,298.15
1379.6592375627451,0.5,4.08285727718931,298.15
1379.6675708960786,0.5,4.082389370778548,298.15
1379.6759042294118,0.5,4.081945987906503,298.15
1379.6842375627452,0.5,4.081528264203849,298.15
1379.692570896079,0.5,4.08113571288252,298.15
1379.700904229412,0.5,4.080763774560372,298.15
1379.709237562745,0.5,4.080408315199364,298.15
1379.7175708960783,0.5,4.080068681046119,298.15
1379.725904229412,0.5,4.079746343855206,298.15
1379.7342375627452,0.5,4.079438504995803,298.15
1379.7425708960786,0.5,4.079143936147558,298.15
1379.7509042294118,0.5,4.0788594259495365,298.15
1379.7592375627453,0.5,4.078581591754526,298.15
1379.7675708960785,0.5,4.078303579272959,298.15
1379.775904229412,0.5,4.078016320026645,298.15
1379.7842375627451,0.5,4.07771569451532,298.15
1379.7925708960786,0.5,4.077403451324578,298.15
1379.8009042294118,0.5,4.077088480859317,298.15
1379.8092375627452,0.5,4.076781948363558,298.15
1379.817570896079,0.5,4.07649446627287,298.15
1379.825904229412,0.5,4.076232644592666,298.15
1379.834237562745,0.5,4.076000171627159,298.15
1379.8425708960783,0.5,4.075796647983336,298.15
1379.850904229412,0.5,4.075614697507463,298.15
1379.8592375627452,0.5,4.075447239205126,298.15
1379.8675708960786,0.5,4.075288586177677,298.15
1379.8759042294118,0.5,4.07513318589629,298.15
1379.8842375627453,0.5,4.074974247405571,298.15
1379.8925708960785,0.5,4.074808208788448,298.15
1379.900904229412,0.5,4.074634751424478,298.15
1379.9092375627451,0.5,4.07445317292539,298.15
1379.9175708960786,0.5,4.074263473622136,298.15
1379.9259042294118,0.5,4.0740668305334005,298.15
1379.9342375627452,0.5,4.073868461576588,298.15
1379.942570896079,0.5,4.073670756228708,298.15
1379.950904229412,0.5,4.073472495411618,298.15
1379.959237562745,0.5,4.073276250479657,298.15
1379.9675708960783,0.5,4.073088872278455,298.15
1379.975904229412,0.5,4.072915550759305,298.15
1379.9842375627452,0.5,4.072755973066902,298.15
1379.9925708960786,0.5,4.072606384465273,298.15
1380.0009042294118,0.5,4.072461575411809,298.15
1380.0092375627453,0.5,4.072316389385861,298.15
1380.0175708960785,0.5,4.072170152812167,298.15
1380.025904229412,0.5,4.072022680096706,298.15
1380.0342375627451,0.5,4.071873584939917,298.15
1380.0425708960786,0.5,4.07172136184618,298.15
1380.0509042294118,0.5,4.07156662811828,298.15
1380.0592375627452,0.5,4.071410656122586,298.15
1380.067570896079,0.5,4.071259106422721,298.15
1380.075904229412,0.5,4.07111667320128,298.15
1380.084237562745,0.5,4.070980978016443,298.15
1380.0925708960783,0.5,4.070844829360316,298.15
1380.100904229412,0.5,4.070703600315653,298.15
1380.1092375627452,0.5,4.070554730992164,298.15
1380.1175708960786,0.5,4.070395885525064,298.15
1380.1259042294118,0.5,4.070229140948689,298.15
1380.1342375627453,0.5,4.07005409857863,298.15
1380.1425708960785,0.5,4.069868312763197,298.15
1380.150904229412,0.5,4.069675613612883,298.15
1380.1592375627451,0.5,4.069480805686022,298.15
1380.1675708960786,0.5,4.069286476256859,298.15
1380.1759042294118,0.5,4.069094693387356,298.15
1380.1842375627452,0.5,4.068904388809935,298.15
1380.192570896079,0.5,4.068709008627918,298.15
1380.200904229412,0.5,4.068505054003191,298.15
1380.209237562745,0.5,4.068297124455147,298.15
1380.2175708960783,0.5,4.068089110514419,298.15
1380.225904229412,0.5,4.067879747825729,298.15
1380.2342375627452,0.5,4.067667674801774,298.15
1380.2425708960786,0.5,4.0674513459495305,298.15
1380.2509042294118,0.5,4.067228026293849,298.15
1380.2592375627453,0.5,4.066991909208551,298.15
1380.2675708960785,0.5,4.066740994300146,298.15
1380.275904229412,0.5,4.066470664670325,298.15
1380.2842375627451,0.5,4.066176893018957,298.15
1380.2925708960786,0.5,4.065860419846612,298.15
1380.3009042294118,0.5,4.065527982408426,298.15
1380.3092375627452,0.5,4.065183820241499,298.15
1380.317570896079,0.5,4.064832080529639,298.15
1380.325904229412,0.5,4.064476087106186,298.15
1380.334237562745,0.5,4.064123746135507,298.15
1380.3425708960783,0.5,4.063783437585752,298.15
1380.350904229412,0.5,4.063456627192152,298.15
1380.3592375627452,0.5,4.063137948191187,298.15
1380.3675708960786,0.5,4.062821304190162,298.15
1380.3759042294118,0.5,4.062500462315166,298.15
1380.3842375627453,0.5,4.062166339977199,298.15
1380.3925708960785,0.5,4.061815410349008,298.15
1380.400904229412,0.5,4.061448419879127,298.15
1380.4092375627451,0.5,4.061065097878355,298.15
1380.4175708960786,0.5,4.06066852688034,298.15
1380.4259042294118,0.5,4.0602628040188975,298.15
1380.4342375627452,0.5,4.059852535018181,298.15
1380.442570896079,0.5,4.059435941731229,298.15
1380.450904229412,0.5,4.059009510407204,298.15
1380.459237562745,0.5,4.05857732309264,298.15
1380.4675708960783,0.5,4.058145964519164,298.15
1380.475904229412,0.5,4.057714484597868,298.15
1380.4842375627452,0.5,4.057279690727411,298.15
1380.4925708960786,0.5,4.056837417840693,298.15
1380.5009042294118,0.5,4.056381633971764,298.15
1380.5092375627453,0.5,4.055908842633725,298.15
1380.5175708960785,0.5,4.055418772236842,298.15
1380.525904229412,0.5,4.054913704317613,298.15
1380.5342375627451,0.5,4.054396184851699,298.15
1380.5425708960786,0.5,4.053869543554438,298.15
1380.5509042294118,0.5,4.053336809371439,298.15
1380.5592375627452,0.5,4.052800096850376,298.15
1380.567570896079,0.5,4.052259648116901,298.15
1380.575904229412,0.5,4.051717237851182,298.15
1380.584237562745,0.5,4.051175179903211,298.15
1380.5925708960783,0.5,4.050630708810161,298.15
1380.600904229412,0.5,4.0500798295621205,298.15
1380.6092375627452,0.5,4.04951810071773,298.15
1380.6175708960786,0.5,4.048941019525002,298.15
1380.6259042294118,0.5,4.048346132956262,298.15
1380.6342375627453,0.5,4.047736905437,298.15
1380.6425708960785,0.5,4.047119151140368,298.15
1380.650904229412,0.5,4.04649852836798,298.15
1380.6592375627451,0.5,4.045879683942804,298.15
1380.6675708960786,0.5,4.045267480446533,298.15
1380.6759042294118,0.5,4.04466492514522,298.15
1380.6842375627452,0.5,4.04406816019238,298.15
1380.692570896079,0.5,4.043475148928384,298.15
1380.700904229412,0.5,4.042884402750079,298.15
1380.709237562745,0.5,4.042289800990954,298.15
1380.7175708960783,0.5,4.041685885388608,298.15
1380.725904229412,0.5,4.041073089026328,298.15
1380.7342375627452,0.5,4.04044973791488,298.15
1380.7425708960786,0.5,4.039812849448289,298.15
1380.7509042294118,0.5,4.039163681167921,298.15
1380.7592375627453,0.5,4.038506170285512,298.15
1380.7675708960785,0.5,4.037840152006368,298.15
1380.775904229412,0.5,4.037164864156855,298.15
1380.7842375627451,0.5,4.0364807080611005,298.15
1380.7925708960786,0.5,4.035789661812316,298.15
1380.8009042294118,0.5,4.035093770480321,298.15
1380.8092375627452,0.5,4.034394797888201,298.15
1380.817570896079,0.5,4.033692947006303,298.15
1380.825904229412,0.5,4.032987671087419,298.15
1380.834237562745,0.5,4.032277186808449,298.15
1380.8425708960783,0.5,4.03156271879794,298.15
1380.850904229412,0.5,4.0308458394852025,298.15
1380.8592375627452,0.5,4.030127511182413,298.15
1380.8675708960786,0.5,4.02940886186942,298.15
1380.8759042294118,0.5,4.028691365821509,298.15
1380.8842375627453,0.5,4.027974505043956,298.15
1380.8925708960785,0.5,4.027257822797183,298.15
1380.900904229412,0.5,4.026538535975096,298.15
1380.9092375627451,0.5,4.025810405724082,298.15
1380.9175708960786,0.5,4.025073157012594,298.15
1380.9259042294118,0.5,4.024329804802884,298.15
1380.9342375627452,0.5,4.023581188339526,298.15
1380.942570896079,0.5,4.0228261929067575,298.15
1380.950904229412,0.5,4.022066775080335,298.15
1380.959237562745,0.5,4.021306281350233,298.15
1380.9675708960783,0.5,4.020544588112383,298.15
1380.975904229412,0.5,4.019783041492167,298.15
1380.9842375627452,0.5,4.019025821487245,298.15
1380.9925708960786,0.5,4.018275040223589,298.15
1381.0009042294118,0.5,4.017529804965476,298.15
1381.0092375627453,0.5,4.016790374320479,298.15
1381.0175708960785,0.5,4.016055738643297,298.15
1381.025904229412,0.5,4.015321281149541,298.15
1381.0342375627451,0.5,4.014584249845799,298.15
1381.0425708960786,0.5,4.013842336568054,298.15
1381.0509042294118,0.5,4.013092564804023,298.15
1381.0592375627452,0.5,4.012334800056918,298.15
1381.067570896079,0.5,4.011571879362625,298.15
1381.075904229412,0.5,4.010805814423426,298.15
1381.084237562745,0.5,4.010037917064267,298.15
1381.0925708960783,0.5,4.009270668283337,298.15
1381.100904229412,0.5,4.008506145701156,298.15
1381.1092375627452,0.5,4.00774597569262,298.15
1381.1175708960786,0.5,4.006988572748037,298.15
1381.1259042294118,0.5,4.006232195847214,298.15
1381.1342375627453,0.5,4.0054761188455394,298.15
1381.1425708960785,0.5,4.004717240631859,298.15
1381.150904229412,0.5,4.003951965171636,298.15
1381.1592375627451,0.5,4.0031787512197,298.15
1381.1675708960786,0.5,4.0023967514838645,298.15
1381.1759042294118,0.5,4.0016053558566265,298.15
1381.1842375627452,0.5,4.00080578624211,298.15
1381.192570896079,0.5,4.000001591040226,298.15
1381.200904229412,0.5,3.999196100786519,298.15
1381.209237562745,0.5,3.998389578109097,298.15
1381.2175708960783,0.5,3.99758311275177,298.15
1381.225904229412,0.5,3.996781910613768,298.15
1381.2342375627452,0.5,3.9959882361299055,298.15
1381.2425708960786,0.5,3.9952022841161714,298.15
1381.2509042294118,0.5,3.994426039902541,298.15
1381.2592375627453,0.5,3.993659224901015,298.15
1381.2675708960785,0.5,3.9928959395184576,298.15
1381.275904229412,0.5,3.992132524855813,298.15
1381.2842375627451,0.5,3.991365825125048,298.15
1381.2925708960786,0.5,3.990591365602648,298.15
1381.3009042294118,0.5,3.989809147946712,298.15
1381.3092375627452,0.5,3.9890233770387176,298.15
1381.317570896079,0.5,3.988236952979491,298.15
1381.325904229412,0.5,3.987454438521533,298.15
1381.334237562745,0.5,3.9866814144618,298.15
1381.3425708960783,0.5,3.9859193070887535,298.15
1381.350904229412,0.5,3.9851675467754135,298.15
1381.3592375627452,0.5,3.9844219620452392,298.15
1381.3675708960786,0.5,3.983675690574541,298.15
1381.3759042294118,0.5,3.982921229197691,298.15
1381.3842375627453,0.5,3.9821513188500166,298.15
1381.3925708960785,0.5,3.981361688816075,298.15
1381.400904229412,0.5,3.9805565869147297,298.15
1381.4092375627451,0.5,3.9797393795847897,298.15
1381.4175708960786,0.5,3.978914874885698,298.15
1381.4259042294118,0.5,3.978095210578764,298.15
1381.4342375627452,0.5,3.977293809453461,298.15
1381.442570896079,0.5,3.976521351141714,298.15
1381.450904229412,0.5,3.9757822725820033,298.15
1381.459237562745,0.5,3.975071626318262,298.15
1381.4675708960783,0.5,3.974375493725989,298.15
1381.475904229412,0.5,3.973675380951496,298.15
1381.4842375627452,0.5,3.9729529639737313,298.15
1381.4925708960786,0.5,3.972199216166867,298.15
1381.5009042294118,0.5,3.971417135093137,298.15
1381.5092375627453,0.5,3.970612870934608,298.15
1381.5175708960785,0.5,3.969793569845793,298.15
