Time,Current,Terminal Voltage,Ambient Temperature
1684.677408858331,-2.5,4.19140441079194,298.15
1684.6857421916643,-2.5,4.192766864358109,298.15
1684.694075524998,-2.5,4.193851631675525,298.15
1684.7024088583312,-2.5,4.195236072316416,298.15
1684.7107421916646,-2.5,4.196124618425946,298.15
1684.7190755249978,-2.5,4.197530705354861,298.15
1684.7274088583313,-2.5,4.198724528150929,298.15
1684.7357421916645,-2.5,4.199880535605926,298.15
1684.73635194952,-2.5,4.1999900000000245,298.15
1684.7363519495202,-2.500375916054443,4.200000000000001,298.15
1684.7446852828534,-2.4571137690745566,4.200000000000001,298.15
1684.7530186161866,-2.4148898643899948,4.2,298.15
1684.76135194952,-2.3669781281761453,4.199999999999999,298.15
1684.7696852828533,-2.3246507308638438,4.2,298.15
1684.7780186161867,-2.2760846554128595,4.200000000000001,298.15
1684.78635194952,-2.223979665325323,4.199999999999999,298.15
1684.7946852828534,-2.1783631780687114,4.200000000000001,298.15
1684.8030186161868,-2.1264482093028656,4.199999999999999,298.15
1684.81135194952,-2.0714844369437264,4.199999999999998,298.15
1684.8196852828537,-2.02342729701172,4.200000000000001,298.15
1684.828018616187,-1.9719617166198988,4.199999999999999,298.15
1684.83635194952,-1.9124450689390584,4.200000000000001,298.15
1684.844685282853,-1.860260000550873,4.199999999999999,298.15
1684.8530186161868,-1.8134457532072004,4.200000000000001,298.15
1684.86135194952,-1.7623411576333885,4.1999999999999975,298.15
1684.8696852828534,-1.7113656285901295,4.200000000000001,298.15
1684.8780186161866,-1.6626982807308948,4.199999999999999,298.15
1684.88635194952,-1.6148716136984276,4.199999999999999,298.15
1684.8946852828533,-1.5688948386519463,4.200000000000001,298.15
1684.9030186161867,-1.5238822758884851,4.200000000000001,298.15
1684.91135194952,-1.479367708596374,4.2,298.15
1684.9196852828534,-1.4348777901818983,4.200000000000001,298.15
1684.9280186161868,-1.3925215769885075,4.2,298.15
1684.93635194952,-1.3542104051761108,4.199999999999999,298.15
1684.9446852828537,-1.3161934387061032,4.199999999999999,298.15
1684.953018616187,-1.27535062399484,4.200000000000001,298.15
1684.96135194952,-1.234957761754656,4.200000000000001,298.15
1684.969685282853,-1.1982229632697992,4.200000000000001,298.15
1684.9780186161868,-1.1641095707765938,4.199999999999999,298.15
1684.98635194952,-1.1315295199947646,4.199999999999999,298.15
1684.9946852828534,-1.099853420970214,4.199999999999999,298.15
1685.0030186161866,-1.0688672588349282,4.199999999999999,298.15
1685.01135194952,-1.0375838601277263,4.200000000000001,298.15
1685.0196852828533,-1.0060460609559314,4.200000000000001,298.15
1685.0280186161867,-0.9761935883172064,4.199999999999998,298.15
1685.03635194952,-0.9482196838354556,4.199999999999999,298.15
1685.0446852828534,-0.9211288136258712,4.199999999999999,298.15
1685.0530186161868,-0.8946987403054025,4.199999999999999,298.15
1685.06135194952,-0.8696801832513585,4.199999999999999,298.15
1685.0696852828537,-0.8460082971525087,4.199999999999999,298.15
1685.078018616187,-0.8228675332353285,4.199999999999999,298.15
1685.08635194952,-0.7994021341298319,4.2,298.15
1685.094685282853,-0.7757970021666287,4.200000000000001,298.15
1685.1030186161868,-0.7524960314542678,4.200000000000001,298.15
1685.11135194952,-0.7301829282925655,4.2,298.15
1685.1196852828534,-0.709324557223979,4.200000000000001,298.15
1685.1280186161866,-0.6900003504314027,4.199999999999999,298.15
1685.13635194952,-0.6716654243137511,4.199999999999999,298.15
1685.1446852828533,-0.6538128510984015,4.199999999999998,298.15
1685.1530186161867,-0.6360973763520521,4.199999999999999,298.15
1685.16135194952,-0.6183175134901796,4.199999999999999,298.15
1685.1696852828534,-0.6005903769164266,4.199999999999998,298.15
1685.1780186161868,-0.5833411470544951,4.199999999999999,298.15
1685.18635194952,-0.5669347056697972,4.199999999999999,298.15
1685.1946852828537,-0.5514285962525056,4.199999999999999,298.15
1685.203018616187,-0.5367994016216147,4.199999999999998,298.15
1685.21135194952,-0.5227383119337297,4.2,298.15
1685.219685282853,-0.5087907913106954,4.200000000000001,298.15
1685.2280186161868,-0.4946983530765266,4.199999999999999,298.15
1685.23635194952,-0.4804196312146267,4.199999999999999,298.15
1685.2446852828534,-0.4661009439102944,4.199999999999999,298.15
1685.2530186161866,-0.452116422509294,4.200000000000001,298.15
1685.26135194952,-0.438770854366837,4.2,298.15
1685.2696852828533,-0.4261715216423384,4.2,298.15
1685.2780186161867,-0.4142802380432402,4.200000000000002,298.15
1685.28635194952,-0.4030026110849133,4.199999999999999,298.15
1685.2946852828534,-0.3921862498118974,4.199999999999999,298.15
1685.3030186161868,-0.381735708983318,4.199999999999999,298.15
1685.31135194952,-0.3715998840161794,4.200000000000001,298.15
1685.3196852828537,-0.361730845525389,4.200000000000001,298.15
1685.328018616187,-0.3520792519603024,4.1999999999999975,298.15
1685.33635194952,-0.3426157899544074,4.200000000000001,298.15
1685.344685282853,-0.3333590879065523,4.199999999999999,298.15
1685.3530186161868,-0.3243076479416023,4.2,298.15
1685.36135194952,-0.3154434263547505,4.199999999999999,298.15
1685.3696852828534,-0.3067766039647757,4.2,298.15
1685.3780186161866,-0.2983393316842929,4.2,298.15
1685.38635194952,-0.2901525253013063,4.2,298.15
1685.3946852828533,-0.2822155090170409,4.2,298.15
1685.4030186161867,-0.2745125886856958,4.199999999999999,298.15
1685.41135194952,-0.2670307117565272,4.200000000000001,298.15
1685.4196852828534,-0.2597716522181973,4.2,298.15
1685.4280186161868,-0.252731524097052,4.1999999999999975,298.15
1685.43635194952,-0.2459019992995135,4.200000000000003,298.15
1685.4446852828537,-0.2392594714313209,4.199999999999999,298.15
1685.453018616187,-0.2328109754035662,4.200000000000001,298.15
1685.46135194952,-0.2265663634543422,4.199999999999999,298.15
1685.469685282853,-0.2205157510421851,4.200000000000001,298.15
1685.4780186161868,-0.2146446174422333,4.199999999999999,298.15
1685.48635194952,-0.2089367052908627,4.199999999999999,298.15
1685.4946852828534,-0.2033779511400693,4.2,298.15
1685.5030186161866,-0.1979529382918838,4.2,298.15
1685.51135194952,-0.1926597842758838,4.1999999999999975,298.15
1685.5196852828533,-0.1875002572008488,4.200000000000001,298.15
1685.5280186161867,-0.1824792934134825,4.2,298.15
1685.53635194952,-0.1775994095565916,4.200000000000001,298.15
1685.5446852828534,-0.1728763072348779,4.199999999999999,298.15
1685.5530186161868,-0.1682858785712698,4.2,298.15
1685.5559247673734,-0.1667166666666242,4.199999999999999,298.15
1685.5559247673737,0.5,4.169839696600505,298.15
1685.5642581007069,0.5,4.156775918745161,298.15
1685.57259143404,0.5,4.150665025116095,298.15
1685.5809247673735,0.5,4.146402087142347,298.15
1685.5892581007067,0.5,4.143000727400661,298.15
1685.5975914340402,0.5,4.1400908074369696,298.15
1685.6059247673734,0.5,4.137500452315587,298.15
1685.6142581007068,0.5,4.1351387376239135,298.15
1685.6225914340405,0.5,4.132944443531566,298.15
1685.6309247673737,0.5,4.130886592745415,298.15
1685.639258100707,0.5,4.128945948513854,298.15
1685.64759143404,0.5,4.1271080646507325,298.15
1685.6559247673736,0.5,4.1253621404913865,298.15
1685.6642581007068,0.5,4.123699387150855,298.15
1685.6725914340402,0.5,4.12210830433451,298.15
1685.6809247673734,0.5,4.120571876853279,298.15
1685.6892581007069,0.5,4.119090596293916,298.15
1685.69759143404,0.5,4.117665178728879,298.15
1685.7059247673735,0.5,4.1162938311045,298.15
1685.7142581007067,0.5,4.114975276976973,298.15
1685.7225914340402,0.5,4.113706058171314,298.15
1685.7309247673734,0.5,4.112480518153262,298.15
1685.7392581007068,0.5,4.111281220723626,298.15
1685.7475914340405,0.5,4.110107397177462,298.15
1685.7559247673737,0.5,4.108960176523116,298.15
1685.764258100707,0.5,4.107838271790298,298.15
1685.77259143404,0.5,4.106739496235342,298.15
1685.7809247673736,0.5,4.105661855538944,298.15
1685.7892581007068,0.5,4.1046050592627,298.15
1685.7975914340402,0.5,4.10356730234021,298.15
1685.8059247673734,0.5,4.102540898724902,298.15
1685.8142581007069,0.5,4.1015311420018605,298.15
1685.82259143404,0.5,4.100546087164147,298.15
1685.8309247673735,0.5,4.099592828588658,298.15
1685.8392581007067,0.5,4.098680709405549,298.15
1685.8475914340402,0.5,4.09781393905449,298.15
1685.8559247673734,0.5,4.096990481621162,298.15
1685.8642581007068,0.5,4.096201087715792,298.15
1685.8725914340405,0.5,4.095424489260472,298.15
1685.8809247673737,0.5,4.094656154036333,298.15
1685.889258100707,0.5,4.093900833168732,298.15
1685.89759143404,0.5,4.093161910667496,298.15
1685.9059247673736,0.5,4.092445821268257,298.15
1685.9142581007068,0.5,4.091754275475374,298.15
1685.9225914340402,0.5,4.091085507980102,298.15
1685.9309247673734,0.5,4.090439015460044,298.15
1685.9392581007069,0.5,4.089806744356212,298.15
1685.94759143404,0.5,4.089182150759876,298.15
1685.9559247673735,0.5,4.088569398683065,298.15
1685.9642581007067,0.5,4.087970711866611,298.15
1685.9725914340402,0.5,4.087388924273915,298.15
1685.9809247673734,0.5,4.086826027021463,298.15
1685.9892581007068,0.5,4.086283747359678,298.15
1685.9975914340405,0.5,4.085761642709576,298.15
1686.0059247673737,0.5,4.085252671835471,298.15
1686.014258100707,0.5,4.084749370630714,298.15
1686.02259143404,0.5,4.084247459648278,298.15
1686.0309247673736,0.5,4.083744639529955,298.15
1686.0392581007068,0.5,4.083244839077516,298.15
1686.0475914340402,0.5,4.082759827247962,298.15
1686.0559247673734,0.5,4.082297597795369,298.15
1686.0642581007069,0.5,4.081862479916342,298.15
1686.07259143404,0.5,4.08145579139428,298.15
1686.0809247673735,0.5,4.081073063342379,298.15
1686.0892581007067,0.5,4.0807072636363255,298.15
1686.0975914340402,0.5,4.080355773396747,298.15
1686.1059247673734,0.5,4.080019478178551,298.15
1686.1142581007068,0.5,4.079696482896807,298.15
1686.1225914340405,0.5,4.0793865999380445,298.15
1686.1309247673737,0.5,4.0790888691448846,298.15
1686.139258100707,0.5,4.078801187007612,298.15
1686.14759143404,0.5,4.078517760061621,298.15
1686.1559247673736,0.5,4.07823016874872,298.15
1686.1642581007068,0.5,4.077929504069385,298.15
1686.1725914340402,0.5,4.077615893097548,298.15
1686.1809247673734,0.5,4.077295175706986,298.15
1686.1892581007069,0.5,4.076978828951875,298.15
1686.19759143404,0.5,4.076677760416743,298.15
1686.2059247673735,0.5,4.076401614495593,298.15
1686.2142581007067,0.5,4.076154025511466,298.15
1686.2225914340402,0.5,4.075936374589153,298.15
1686.2309247673734,0.5,4.075743668902453,298.15
1686.2392581007068,0.5,4.075568028701293,298.15
1686.2475914340405,0.5,4.075402835498403,298.15
1686.2559247673737,0.5,4.075241875126048,298.15
1686.264258100707,0.5,4.075079785697215,298.15
1686.27259143404,0.5,4.074910469098036,298.15
1686.2809247673736,0.5,4.074733905154699,298.15
1686.2892581007068,0.5,4.074550280991495,298.15
1686.2975914340402,0.5,4.074361167440801,298.15
1686.3059247673734,0.5,4.074164932643319,298.15
1686.3142581007069,0.5,4.073965043134996,298.15
1686.32259143404,0.5,4.07376544415382,298.15
1686.3309247673735,0.5,4.073565519340553,298.15
1686.3392581007067,0.5,4.073367363771792,298.15
1686.3475914340402,0.5,4.073178267843751,298.15
1686.3559247673734,0.5,4.0730024828740365,298.15
1686.3642581007068,0.5,4.072840438268966,298.15
1686.3725914340405,0.5,4.0726889217255735,298.15
1686.3809247673737,0.5,4.072544174180214,298.15
1686.389258100707,0.5,4.072400773534951,298.15
1686.39759143404,0.5,4.072256500596757,298.15
1686.4059247673736,0.5,4.072110744534125,298.15
1686.4142581007068,0.5,4.071962338100461,298.15
1686.4225914340402,0.5,4.071810649636058,298.15
1686.4309247673734,0.5,4.071657222153171,298.15
1686.4392581007069,0.5,4.071502278042296,298.15
1686.44759143404,0.5,4.071349557721522,298.15
1686.4559247673735,0.5,4.071204760293172,298.15
1686.4642581007067,0.5,4.071066951938512,298.15
1686.4725914340402,0.5,4.070930931471027,298.15
1686.4809247673734,0.5,4.070792497222055,298.15
1686.4892581007068,0.5,4.070648066116419,298.15
1686.4975914340405,0.5,4.070495116952662,298.15
1686.5059247673737,0.5,4.070334487029173,298.15
1686.514258100707,0.5,4.07016607273342,298.15
1686.52259143404,0.5,4.069986409731545,298.15
1686.5309247673736,0.5,4.06979691174328,298.15
1686.5392581007068,0.5,4.069603559819505,298.15
1686.5475914340402,0.5,4.069410789665637,298.15
1686.5559247673734,0.5,4.069220589042883,298.15
1686.5642581007069,0.5,4.069033291052008,298.15
1686.57259143404,0.5,4.068844193540494,298.15
1686.5809247673735,0.5,4.068647074355081,298.15
1686.5892581007067,0.5,4.068443596745486,298.15
1686.5975914340402,0.5,4.068239042572246,298.15
1686.6059247673734,0.5,4.068033827064319,298.15
1686.6142581007068,0.5,4.067824970869442,298.15
1686.6225914340405,0.5,4.067612798443856,298.15
1686.6309247673737,0.5,4.067397220376845,298.15
1686.639258100707,0.5,4.067171497692291,298.15
1686.64759143404,0.5,4.066931562456193,298.15
1686.6559247673736,0.5,4.066673617859454,298.15
1686.6642581007068,0.5,4.066393540803651,298.15
1686.6725914340402,0.5,4.066089746598051,298.15
1686.6809247673734,0.5,4.065768395272656,298.15
1686.6892581007069,0.5,4.065433751686732,298.15
1686.69759143404,0.5,4.065088932700931,298.15
1686.7059247673735,0.5,4.064737952783604,298.15
1686.7142581007067,0.5,4.064387513350654,298.15
1686.7225914340402,0.5,4.064046124908833,298.15
1686.7309247673734,0.5,4.063717432985319,298.15
1686.7392581007068,0.5,4.063397682664583,298.15
1686.7475914340405,0.5,4.063082926595714,298.15
1686.7559247673737,0.5,4.062768550016601,298.15
1686.764258100707,0.5,4.062445360276706,298.15
1686.77259143404,0.5,4.062105875303369,298.15
1686.7809247673736,0.5,4.061749095581964,298.15
1686.7892581007068,0.5,4.061375891924542,298.15
1686.7975914340402,0.5,4.060989252422258,298.15
1686.8059247673734,0.5,4.060592647352595,298.15
1686.8142581007069,0.5,4.060191074647197,298.15
1686.82259143404,0.5,4.059784432725374,298.15
1686.8309247673735,0.5,4.059367882105609,298.15
1686.8392581007067,0.5,4.058943107136281,298.15
1686.8475914340402,0.5,4.058516944175601,298.15
1686.8559247673734,0.5,4.0580911219970455,298.15
1686.8642581007068,0.5,4.057663042807098,298.15
1686.8725914340405,0.5,4.057230223357953,298.15
1686.8809247673737,0.5,4.056786707158093,298.15
1686.889258100707,0.5,4.0563267013924085,298.15
1686.89759143404,0.5,4.055848092681977,298.15
1686.9059247673736,0.5,4.055352285777135,298.15
1686.9142581007068,0.5,4.054842848927987,298.15
1686.9225914340402,0.5,4.054322769858972,298.15
1686.9309247673734,0.5,4.053795389714447,298.15
1686.9392581007069,0.5,4.053263313814144,298.15
1686.94759143404,0.5,4.05272723940638,298.15
1686.9559247673735,0.5,4.052188475981508,298.15
1686.9642581007067,0.5,4.051649915675552,298.15
1686.9725914340402,0.5,4.051110599476827,298.15
1686.9809247673734,0.5,4.050567336209348,298.15
1686.9892581007068,0.5,4.050015887871891,298.15
1686.9975914340405,0.5,4.049450959612939,298.15
1687.0059247673737,0.5,4.048868281163782,298.15
1687.014258100707,0.5,4.048268498599757,298.15
1687.02259143404,0.5,4.047656850855725,298.15
1687.0309247673736,0.5,4.047038288546183,298.15
1687.0392581007068,0.5,4.046419201983182,298.15
1687.0475914340402,0.5,4.045804488196977,298.15
1687.0559247673734,0.5,4.045199164534728,298.15
1687.0642581007069,0.5,4.044601669245752,298.15
1687.07259143404,0.5,4.044010157552432,298.15
1687.0809247673735,0.5,4.043422323301657,298.15
1687.0892581007067,0.5,4.042832903936126,298.15
1687.0975914340402,0.5,4.042237040654491,298.15
1687.1059247673734,0.5,4.041633590750537,298.15
1687.1142581007068,0.5,4.041019995897152,298.15
1687.1225914340405,0.5,4.040392932841906,298.15
1687.1309247673737,0.5,4.039752945460265,298.15
1687.139258100707,0.5,4.039103362535583,298.15
1687.14759143404,0.5,4.038444746149809,298.15
1687.1559247673736,0.5,4.037777266660864,298.15
1687.1642581007068,0.5,4.037100236139392,298.15
1687.1725914340402,0.5,4.036414154165799,298.15
1687.1809247673734,0.5,4.035722435928413,298.15
1687.1892581007069,0.5,4.035027779625928,298.15
1687.19759143404,0.5,4.034330147784592,298.15
1687.2059247673735,0.5,4.03362870571754,298.15
1687.2142581007067,0.5,4.032922654973702,298.15
1687.2225914340402,0.5,4.032211426373806,298.15
1687.2309247673734,0.5,4.031496637780961,298.15
1687.2392581007068,0.5,4.030779377561386,298.15
1687.2475914340405,0.5,4.030060654287528,298.15
1687.2559247673737,0.5,4.02934231911249,298.15
1687.264258100707,0.5,4.028625025691431,298.15
1687.27259143404,0.5,4.027908995778356,298.15
1687.2809247673736,0.5,4.0271929372731865,298.15
1687.2892581007068,0.5,4.026470767674002,298.15
1687.2975914340402,0.5,4.025738842156247,298.15
1687.3059247673734,0.5,4.024999841924898,298.15
1687.3142581007069,0.5,4.024254752538812,298.15
1687.32259143404,0.5,4.023502561282477,298.15
1687.3309247673735,0.5,4.022744668003153,298.15
1687.3392581007067,0.5,4.021984388579238,298.15
1687.3475914340402,0.5,4.021222752225297,298.15
1687.3559247673734,0.5,4.020461493432784,298.15
1687.3642581007068,0.5,4.019704474186563,298.15
1687.3725914340405,0.5,4.018954595269022,298.15
1687.3809247673737,0.5,4.018212594115074,298.15
1687.389258100707,0.5,4.017478288492018,298.15
1687.39759143404,0.5,4.016749184632415,298.15
1687.4059247673736,0.5,4.016021377838239,298.15
1687.4142581007068,0.5,4.015291571533433,298.15
1687.4225914340402,0.5,4.014555935163061,298.15
1687.4309247673734,0.5,4.0138104355442445,298.15
1687.4392581007069,0.5,4.013055535804597,298.15
1687.44759143404,0.5,4.012292879358013,298.15
1687.4559247673735,0.5,4.011524395579237,298.15
1687.4642581007067,0.5,4.010753417737069,298.15
1687.4725914340402,0.5,4.009982285314971,298.15
1687.4809247673734,0.5,4.009212992836954,298.15
1687.4892581007068,0.5,4.008448373635297,298.15
1687.4975914340405,0.5,4.007688731248917,298.15
1687.5059247673737,0.5,4.006931347607685,298.15
1687.514258100707,0.5,4.006175157071327,298.15
1687.52259143404,0.5,4.005418023846392,298.15
1687.5309247673736,0.5,4.004656292175191,298.15
1687.5392581007068,0.5,4.003886811175256,298.15
1687.5475914340402,0.5,4.003109198178507,298.15
1687.5559247673734,0.5,4.00232252700486,298.15
1687.5642581007069,0.5,4.001526495685004,298.15
1687.57259143404,0.5,4.0007242851458695,298.15
1687.5809247673735,0.5,3.99992001560172,298.15
1687.5892581007067,0.5,3.9991143042173856,298.15
1687.5975914340402,0.5,3.9983064016400753,298.15
1687.6059247673734,0.5,3.9975009440351785,298.15
1687.6142581007068,0.5,3.996701184833925,298.15
1687.6225914340405,0.5,3.995907791872389,298.15
1687.6309247673737,0.5,3.9951235559138496,298.15
1687.639258100707,0.5,3.994350493806775,298.15
1687.64759143404,0.5,3.993585371335697,298.15
1687.6559247673736,0.5,3.992824070032966,298.15
1687.6642581007068,0.5,3.9920631673780633,298.15
1687.6725914340402,0.5,3.9912970466709448,298.15
1687.6809247673734,0.5,3.990522799868055,298.15
1687.6892581007069,0.5,3.9897412122784486,298.15
1687.69759143404,0.5,3.988954870157009,298.15
1687.7059247673735,0.5,3.988168236999286,298.15
1687.7142581007067,0.5,3.987387438000467,298.15
1687.7225914340402,0.5,3.9866165789321935,298.15
1687.7309247673734,0.5,3.985857880151113,298.15
1687.7392581007068,0.5,3.9851088248556983,298.15
1687.7475914340405,0.5,3.98436301650928,298.15
1687.7559247673737,0.5,3.983613238483516,298.15
1687.764258100707,0.5,3.982850497416505,298.15
1687.77259143404,0.5,3.982067313439331,298.15
1687.7809247673736,0.5,3.981266091593772,298.15
1687.7892581007068,0.5,3.980450644767726,298.15
1687.7975914340402,0.5,3.979624304192408,298.15
1687.8059247673734,0.5,3.978797972147453,298.15
1687.8142581007069,0.5,3.977985147598503,298.15
1687.82259143404,0.5,3.977198847826921,298.15
1687.8309247673735,0.5,3.976446194743922,298.15
1687.8392581007067,0.5,3.975726608172395,298.15
1687.8475914340402,0.5,3.975028326784799,298.15
1687.8559247673734,0.5,3.974334039096659,298.15
1687.8642581007068,0.5,3.973624547711829,298.15
1687.8725914340405,0.5,3.972885020013525,298.15
1687.8809247673737,0.5,3.97211438054745,298.15
1687.889258100707,0.5,3.9713170195212113,298.15
1687.89759143404,0.5,3.9704988863520585,298.15
