Time,Current,Terminal Voltage,Ambient Temperature
458.9843455848293,-2.5,4.191264370364564,298.15
458.99267891816265,-2.5,4.19239475909006,298.15
459.001012251496,-2.5,4.193493877249826,298.15
459.0093455848293,-2.5,4.194870444138799,298.15
459.0176789181626,-2.5,4.195835464497591,298.15
459.026012251496,-2.5,4.197210969545204,298.15
459.0343455848293,-2.5,4.198379677370602,298.15
459.04232335964775,-2.5,4.199989999999999,298.15
459.042323359648,-2.5003864814328534,4.200000000000001,298.15
459.0506566929811,-2.4455406057294566,4.199999999999999,298.15
459.0589900263144,-2.3965481853169672,4.200000000000001,298.15
459.0673233596477,-2.340384483962031,4.200000000000001,298.15
459.07565669298106,-2.2921797467439484,4.199999999999999,298.15
459.0839900263144,-2.2404325338822213,4.200000000000001,298.15
459.09232335964776,-2.180961118965449,4.200000000000001,298.15
459.1006566929811,-2.1307824103261592,4.2,298.15
459.1089900263144,-2.07688586501298,4.199999999999998,298.15
459.1173233596477,-2.0150685663898686,4.200000000000001,298.15
459.12565669298107,-1.9587429584553304,4.200000000000001,298.15
459.1339900263144,-1.9074036269465933,4.199999999999999,298.15
459.1423233596477,-1.8529315054917237,4.200000000000001,298.15
459.150656692981,-1.7975633809565208,4.2,298.15
459.1589900263144,-1.747578155074518,4.199999999999999,298.15
459.16732335964775,-1.6966655009395135,4.200000000000001,298.15
459.1756566929811,-1.646146210601521,4.2,298.15
459.1839900263144,-1.5967134912679248,4.199999999999998,298.15
459.1923233596477,-1.5495675318850726,4.199999999999999,298.15
459.20065669298106,-1.50429348586505,4.200000000000001,298.15
459.2089900263144,-1.4593843317970514,4.200000000000001,298.15
459.21732335964776,-1.4175856996437377,4.200000000000001,298.15
459.2256566929811,-1.3760763619570413,4.2,298.15
459.2339900263144,-1.3322391233226163,4.199999999999998,298.15
459.2423233596477,-1.2901054545092774,4.200000000000001,298.15
459.25065669298107,-1.2524525447329071,4.199999999999999,298.15
459.2589900263144,-1.2165666720573547,4.2,298.15
459.2673233596477,-1.1809982972428763,4.199999999999998,298.15
459.275656692981,-1.1468685243833083,4.2,298.15
459.2839900263144,-1.1140820183604616,4.199999999999999,298.15
459.29232335964775,-1.0809325716240683,4.199999999999999,298.15
459.3006566929811,-1.0478970619952528,4.200000000000001,298.15
459.3089900263144,-1.016799931614512,4.199999999999999,298.15
459.3173233596477,-0.9872467256058376,4.2,298.15
459.32565669298106,-0.9584575773808874,4.200000000000001,298.15
459.3339900263144,-0.9310473873516446,4.199999999999999,298.15
459.34232335964776,-0.905354109100104,4.199999999999998,298.15
459.3506566929811,-0.880433470261444,4.199999999999999,298.15
459.3589900263144,-0.8551046394657291,4.199999999999999,298.15
459.3673233596477,-0.8294948299442683,4.199999999999999,298.15
459.37565669298107,-0.8042945000934358,4.199999999999999,298.15
459.3839900263144,-0.7803619613944006,4.199999999999999,298.15
459.3923233596477,-0.7580302819094533,4.200000000000001,298.15
459.400656692981,-0.7372294949992343,4.200000000000001,298.15
459.4089900263144,-0.7174034776235154,4.199999999999999,298.15
459.41732335964775,-0.6979770842445525,4.199999999999999,298.15
459.4256566929811,-0.6785619027255401,4.199999999999999,298.15
459.4339900263144,-0.6590909128237433,4.199999999999999,298.15
459.4423233596477,-0.639909378656087,4.200000000000001,298.15
459.45065669298106,-0.6215383576861665,4.199999999999999,298.15
459.4589900263144,-0.6042517891710318,4.199999999999999,298.15
459.46732335964776,-0.5880391724354332,4.199999999999998,298.15
459.4756566929811,-0.5725489091606433,4.200000000000001,298.15
459.4839900263144,-0.55719422073716,4.200000000000001,298.15
459.4923233596477,-0.5416535634489759,4.200000000000001,298.15
459.50065669298107,-0.5258424334496952,4.200000000000001,298.15
459.5089900263144,-0.5099350122410735,4.200000000000001,298.15
459.5173233596477,-0.494437233910216,4.199999999999999,298.15
459.525656692981,-0.4797389127888923,4.199999999999999,298.15
459.5339900263144,-0.4659429530255659,4.199999999999999,298.15
459.54232335964775,-0.4529673429689348,4.199999999999999,298.15
459.5506566929811,-0.4406571433955442,4.200000000000001,298.15
459.5589900263144,-0.4288158678236921,4.200000000000001,298.15
459.5673233596477,-0.417361794704961,4.199999999999999,298.15
459.57565669298106,-0.4061830024796475,4.199999999999997,298.15
459.5839900263144,-0.3952305054332451,4.199999999999999,298.15
459.59232335964776,-0.3844904900942005,4.199999999999999,298.15
459.6006566929811,-0.3739813154610219,4.2,298.15
459.6089900263144,-0.3637035870515715,4.200000000000001,298.15
459.6173233596477,-0.353645910667563,4.2,298.15
459.62565669298107,-0.3438284710681472,4.2,298.15
459.6339900263144,-0.3342965048974547,4.2,298.15
459.6423233596477,-0.3250644038265876,4.199999999999999,298.15
459.650656692981,-0.3161137431070521,4.199999999999998,298.15
459.6589900263144,-0.3074251473619095,4.199999999999999,298.15
459.66732335964775,-0.2990009459326736,4.199999999999999,298.15
459.6756566929811,-0.2908406778068933,4.199999999999999,298.15
459.6839900263144,-0.282928190870397,4.200000000000001,298.15
459.6923233596477,-0.275239710788872,4.2,298.15
459.70065669298106,-0.2677796847415079,4.2,298.15
459.7089900263144,-0.2605491018539438,4.2,298.15
459.71732335964776,-0.2535377678230139,4.200000000000001,298.15
459.7256566929811,-0.2467256632175421,4.199999999999999,298.15
459.7339900263144,-0.2400917568934325,4.199999999999999,298.15
459.7423233596477,-0.2336204947946564,4.200000000000001,298.15
459.75065669298107,-0.2273135369677017,4.2,298.15
459.7589900263144,-0.2211749573939426,4.1999999999999975,298.15
459.7673233596477,-0.215213150510525,4.200000000000003,298.15
459.775656692981,-0.2094286413970002,4.1999999999999975,298.15
459.7839900263144,-0.2038177698274067,4.200000000000001,298.15
459.79232335964775,-0.1983706398638008,4.199999999999999,298.15
459.8006566929811,-0.1930754960255947,4.199999999999999,298.15
459.8089900263144,-0.187924810994415,4.1999999999999975,298.15
459.8173233596477,-0.182910945537038,4.200000000000001,298.15
459.82565669298106,-0.1780259705490316,4.199999999999999,298.15
459.8339900263144,-0.1732574968325336,4.199999999999998,298.15
459.84232335964776,-0.1686060442875784,4.199999999999999,298.15
459.8457819740409,-0.1667166666666621,4.2,298.15
459.84578197404113,0.5,4.170085767749773,298.15
459.85411530737423,0.5,4.157039156186911,298.15
459.8624486407076,0.5,4.150954981113979,298.15
459.8707819740409,0.5,4.146721423203495,298.15
459.8791153073742,0.5,4.143337899609045,298.15
459.88744864070753,0.5,4.140430327933736,298.15
459.8957819740409,0.5,4.137836596309967,298.15
459.90411530737424,0.5,4.1354721070694485,298.15
459.9124486407076,0.5,4.133287277921996,298.15
459.9207819740409,0.5,4.131248866922319,298.15
459.9291153073742,0.5,4.129329581929717,298.15
459.93744864070754,0.5,4.127501205034752,298.15
459.94578197404087,0.5,4.125752920400784,298.15
459.9541153073742,0.5,4.124080528512299,298.15
459.9624486407076,0.5,4.122479166965033,298.15
459.9707819740409,0.5,4.120944889113108,298.15
459.97911530737423,0.5,4.119473346759888,298.15
459.9874486407076,0.5,4.118055561513593,298.15
459.9957819740409,0.5,4.116676818518055,298.15
460.0041153073742,0.5,4.115336657322912,298.15
460.01244864070753,0.5,4.114039196026242,298.15
460.0207819740409,0.5,4.11278701117071,298.15
460.02911530737424,0.5,4.111580247860474,298.15
460.0374486407076,0.5,4.110417828680335,298.15
460.0457819740409,0.5,4.109294524939937,298.15
460.0541153073742,0.5,4.108198820374449,298.15
460.06244864070754,0.5,4.107126245391534,298.15
460.07078197404087,0.5,4.1060788001863,298.15
460.0791153073742,0.5,4.105056014256155,298.15
460.0874486407076,0.5,4.104056523755989,298.15
460.0957819740409,0.5,4.103076795297645,298.15
460.10411530737423,0.5,4.102111751360943,298.15
460.1124486407076,0.5,4.101161786209001,298.15
460.1207819740409,0.5,4.1002175717162,298.15
460.1291153073742,0.5,4.099279445928492,298.15
460.13744864070753,0.5,4.0983536491319175,298.15
460.1457819740409,0.5,4.097450637116246,298.15
460.15411530737424,0.5,4.096582059565302,298.15
460.1624486407076,0.5,4.095753882550175,298.15
460.1707819740409,0.5,4.094968223220338,298.15
460.1791153073742,0.5,4.094221292255364,298.15
460.18744864070754,0.5,4.093494300126528,298.15
460.19578197404087,0.5,4.092783212556324,298.15
460.2041153073742,0.5,4.092091817316343,298.15
460.2124486407076,0.5,4.091419603223098,298.15
460.2207819740409,0.5,4.090767376565802,298.15
460.22911530737423,0.5,4.09013296806069,298.15
460.2374486407076,0.5,4.089514950121194,298.15
460.2457819740409,0.5,4.088914672474839,298.15
460.2541153073742,0.5,4.088327569127578,298.15
460.26244864070753,0.5,4.087745635616798,298.15
460.2707819740409,0.5,4.087173173552862,298.15
460.27911530737424,0.5,4.086617108666765,298.15
460.2874486407076,0.5,4.086082198906157,298.15
460.2957819740409,0.5,4.0855671265420455,298.15
460.3041153073742,0.5,4.085073195948535,298.15
460.31244864070754,0.5,4.084600552303581,298.15
460.32078197404087,0.5,4.084144203677008,298.15
460.3291153073742,0.5,4.083694443739391,298.15
460.3374486407076,0.5,4.083247453714497,298.15
460.3457819740409,0.5,4.082799571718944,298.15
460.35411530737423,0.5,4.082349819974499,298.15
460.3624486407076,0.5,4.081906991747122,298.15
460.3707819740409,0.5,4.0814790566065895,298.15
460.3791153073742,0.5,4.081070303745102,298.15
460.38744864070753,0.5,4.080683122055318,298.15
460.3957819740409,0.5,4.080317318985749,298.15
460.40411530737424,0.5,4.079968260985556,298.15
460.4124486407076,0.5,4.079634934601124,298.15
460.4207819740409,0.5,4.079320838971359,298.15
460.4291153073742,0.5,4.07902741658333,298.15
460.43744864070754,0.5,4.078754351861242,298.15
460.44578197404087,0.5,4.078499081858526,298.15
460.4541153073742,0.5,4.0782557370747625,298.15
460.4624486407076,0.5,4.078015125558197,298.15
460.4707819740409,0.5,4.077768412118508,298.15
460.47911530737423,0.5,4.0775083210313525,298.15
460.4874486407076,0.5,4.077232459934812,298.15
460.4957819740409,0.5,4.076943371685955,298.15
460.5041153073742,0.5,4.076650363258814,298.15
460.51244864070753,0.5,4.076365622405774,298.15
460.5207819740409,0.5,4.076097167565488,298.15
460.52911530737424,0.5,4.075851034910774,298.15
460.5374486407076,0.5,4.075631635970911,298.15
460.5457819740409,0.5,4.075437443583374,298.15
460.5541153073742,0.5,4.075264034939588,298.15
460.56244864070754,0.5,4.07510753170001,298.15
460.57078197404087,0.5,4.0749665999602085,298.15
460.5791153073742,0.5,4.074831791722255,298.15
460.5874486407076,0.5,4.074694755753534,298.15
460.5957819740409,0.5,4.074550028962216,298.15
460.60411530737423,0.5,4.074394569405502,298.15
460.6124486407076,0.5,4.074229922909641,298.15
460.6207819740409,0.5,4.074058044915555,298.15
460.6291153073742,0.5,4.073878285701436,298.15
460.63744864070753,0.5,4.07368955718039,298.15
460.6457819740409,0.5,4.073494815006358,298.15
460.65411530737424,0.5,4.073297132817045,298.15
460.6624486407076,0.5,4.073101206899163,298.15
460.6707819740409,0.5,4.072912683283999,298.15
460.6791153073742,0.5,4.072736047744376,298.15
460.68744864070754,0.5,4.072571638305039,298.15
460.69578197404087,0.5,4.07241480235288,298.15
460.7041153073742,0.5,4.072262939279701,298.15
460.7124486407076,0.5,4.07211667938295,298.15
460.7207819740409,0.5,4.071974500422247,298.15
460.72911530737423,0.5,4.071830128179077,298.15
460.7374486407076,0.5,4.071679040130936,298.15
460.7457819740409,0.5,4.071524491450505,298.15
460.7541153073742,0.5,4.071366574063164,298.15
460.76244864070753,0.5,4.071205391402394,298.15
460.7707819740409,0.5,4.071046217953507,298.15
460.77911530737424,0.5,4.07089409905532,298.15
460.7874486407076,0.5,4.070745476273348,298.15
460.7957819740409,0.5,4.070595326863765,298.15
460.8041153073742,0.5,4.070440960569853,298.15
460.81244864070754,0.5,4.070278627939,298.15
460.82078197404087,0.5,4.0701085952097085,298.15
460.8291153073742,0.5,4.069930329158735,298.15
460.8374486407076,0.5,4.069741668531282,298.15
460.8457819740409,0.5,4.06954383134927,298.15
460.85411530737423,0.5,4.069340595009981,298.15
460.8624486407076,0.5,4.069135453828416,298.15
460.8707819740409,0.5,4.068931976415211,298.15
460.8791153073742,0.5,4.06873234740339,298.15
460.88744864070753,0.5,4.068529669151125,298.15
460.8957819740409,0.5,4.068316789909673,298.15
460.90411530737424,0.5,4.068095559037477,298.15
460.9124486407076,0.5,4.067870951701634,298.15
460.9207819740409,0.5,4.067642209245015,298.15
460.9291153073742,0.5,4.067409469358109,298.15
460.93744864070754,0.5,4.06717418269802,298.15
460.94578197404087,0.5,4.066935904497367,298.15
460.9541153073742,0.5,4.066690120499912,298.15
460.9624486407076,0.5,4.066434102460818,298.15
460.9707819740409,0.5,4.066165132428948,298.15
460.97911530737423,0.5,4.0658786289217455,298.15
460.9874486407076,0.5,4.065569455575563,298.15
460.9957819740409,0.5,4.065239982225361,298.15
461.0041153073742,0.5,4.064894210759968,298.15
461.01244864070753,0.5,4.064534445869194,298.15
461.0207819740409,0.5,4.064162317706139,298.15
461.02911530737424,0.5,4.063784068543857,298.15
461.0374486407076,0.5,4.063408056433855,298.15
461.0457819740409,0.5,4.063041817454152,298.15
461.0541153073742,0.5,4.062686121194735,298.15
461.06244864070754,0.5,4.062338547520989,298.15
461.07078197404087,0.5,4.0619977076989855,298.15
461.0791153073742,0.5,4.0616557432528815,298.15
461.0874486407076,0.5,4.061303886778285,298.15
461.0957819740409,0.5,4.060935181632465,298.15
461.10411530737423,0.5,4.060546985886411,298.15
461.1124486407076,0.5,4.060142005178131,298.15
461.1207819740409,0.5,4.059724806964125,298.15
461.1291153073742,0.5,4.05929704577513,298.15
461.13744864070753,0.5,4.058861550789047,298.15
461.1457819740409,0.5,4.058419294557936,298.15
461.15411530737424,0.5,4.05796881428383,298.15
461.1624486407076,0.5,4.05751363024617,298.15
461.1707819740409,0.5,4.057059372284605,298.15
461.1791153073742,0.5,4.056606382057202,298.15
461.18744864070754,0.5,4.056150312517621,298.15
461.19578197404087,0.5,4.055685160683206,298.15
461.2041153073742,0.5,4.055205391602265,298.15
461.2124486407076,0.5,4.0547107022103015,298.15
461.2207819740409,0.5,4.054200443691796,298.15
461.22911530737423,0.5,4.053675509133301,298.15
461.2374486407076,0.5,4.053139197697607,298.15
461.2457819740409,0.5,4.052594488464145,298.15
461.2541153073742,0.5,4.052042707787704,298.15
461.26244864070753,0.5,4.051484193915815,298.15
461.2707819740409,0.5,4.050919787302691,298.15
461.27911530737424,0.5,4.05035298583404,298.15
461.2874486407076,0.5,4.049785916519613,298.15
461.2957819740409,0.5,4.049214580886227,298.15
461.3041153073742,0.5,4.048637099716162,298.15
461.31244864070754,0.5,4.04805158432081,298.15
461.32078197404087,0.5,4.047452746196436,298.15
461.3291153073742,0.5,4.046838753227859,298.15
461.3374486407076,0.5,4.046213376752318,298.15
461.3457819740409,0.5,4.045580844589441,298.15
461.35411530737423,0.5,4.0449447947010935,298.15
461.3624486407076,0.5,4.04430932579735,298.15
461.3707819740409,0.5,4.043677436385563,298.15
461.3791153073742,0.5,4.043050326000212,298.15
461.38744864070753,0.5,4.042427511858556,298.15
461.3957819740409,0.5,4.041808969903126,298.15
461.40411530737424,0.5,4.041192889159245,298.15
461.4124486407076,0.5,4.040576217165847,298.15
461.4207819740409,0.5,4.039957960810883,298.15
461.4291153073742,0.5,4.039332364081043,298.15
461.43744864070754,0.5,4.0386964299356,298.15
461.44578197404087,0.5,4.038049391335598,298.15
461.4541153073742,0.5,4.037391240280294,298.15
461.4624486407076,0.5,4.036722782912545,298.15
461.4707819740409,0.5,4.036046268156902,298.15
461.47911530737423,0.5,4.035360825444945,298.15
461.4874486407076,0.5,4.03466419088676,298.15
461.4957819740409,0.5,4.033958440193317,298.15
461.5041153073742,0.5,4.033248888802142,298.15
461.51244864070753,0.5,4.032535640084821,298.15
461.5207819740409,0.5,4.03181762535724,298.15
461.52911530737424,0.5,4.031095656844064,298.15
461.5374486407076,0.5,4.030371481759927,298.15
461.5457819740409,0.5,4.029646367442414,298.15
461.5541153073742,0.5,4.028920897052455,298.15
461.56244864070754,0.5,4.028195801913915,298.15
461.57078197404087,0.5,4.027471563162695,298.15
461.5791153073742,0.5,4.026747511324259,298.15
461.5874486407076,0.5,4.026022633489754,298.15
461.5957819740409,0.5,4.025296479891926,298.15
461.60411530737423,0.5,4.02456568812508,298.15
461.6124486407076,0.5,4.02382644168582,298.15
461.6207819740409,0.5,4.023081222848051,298.15
461.6291153073742,0.5,4.02233369241125,298.15
461.63744864070753,0.5,4.021584390058377,298.15
461.6457819740409,0.5,4.020833608142159,298.15
461.65411530737424,0.5,4.020081700288476,298.15
461.6624486407076,0.5,4.01932779082326,298.15
461.6707819740409,0.5,4.0185707199751874,298.15
461.6791153073742,0.5,4.017811188360801,298.15
461.68744864070754,0.5,4.017050761848184,298.15
461.69578197404087,0.5,4.01629050074364,298.15
461.7041153073742,0.5,4.015533830714057,298.15
461.7124486407076,0.5,4.01478214887787,298.15
461.7207819740409,0.5,4.014034568557153,298.15
461.72911530737423,0.5,4.013290542969234,298.15
461.7374486407076,0.5,4.012547968099455,298.15
461.7457819740409,0.5,4.011802033184014,298.15
461.7541153073742,0.5,4.0110499354291305,298.15
461.76244864070753,0.5,4.010291633490461,298.15
461.7707819740409,0.5,4.009526579931082,298.15
461.77911530737424,0.5,4.008756593126454,298.15
461.7874486407076,0.5,4.0079844967122025,298.15
461.7957819740409,0.5,4.007211768383407,298.15
461.8041153073742,0.5,4.006441316467029,298.15
461.81244864070754,0.5,4.005675669386106,298.15
461.82078197404087,0.5,4.00491556169284,298.15
461.8291153073742,0.5,4.004158370431295,298.15
461.8374486407076,0.5,4.003402382149279,298.15
461.8457819740409,0.5,4.002645429439953,298.15
461.85411530737423,0.5,4.00188366744518,298.15
461.8624486407076,0.5,4.001112699613859,298.15
461.8707819740409,0.5,4.000330931722869,298.15
461.8791153073742,0.5,3.999538937020645,298.15
461.88744864070753,0.5,3.998736788338913,298.15
461.8957819740409,0.5,3.9979281064211847,298.15
461.90411530737424,0.5,3.997117670176683,298.15
461.9124486407076,0.5,3.9963074578558873,298.15
461.9207819740409,0.5,3.9954999308258823,298.15
461.9291153073742,0.5,3.9947000259478327,298.15
461.93744864070754,0.5,3.9939103668592177,298.15
461.94578197404087,0.5,3.993131427916967,298.15
461.9541153073742,0.5,3.9923634935352696,298.15
461.9624486407076,0.5,3.991603246700553,298.15
461.9707819740409,0.5,3.990845175075062,298.15
461.97911530737423,0.5,3.9900847689702426,298.15
461.9874486407076,0.5,3.9893181594939713,298.15
461.9957819740409,0.5,3.988543794310635,298.15
462.0041153073742,0.5,3.987762966960094,298.15
462.01244864070753,0.5,3.986978542108317,298.15
462.0207819740409,0.5,3.98619407950423,298.15
462.02911530737424,0.5,3.985415079909128,298.15
462.0374486407076,0.5,3.9846431241198097,298.15
462.0457819740409,0.5,3.983880419572405,298.15
462.0541153073742,0.5,3.983129046267277,298.15
462.06244864070754,0.5,3.98238453545631,298.15
462.07078197404087,0.5,3.981641046756153,298.15
462.0791153073742,0.5,3.980894061306148,298.15
462.0874486407076,0.5,3.980134596062923,298.15
462.0957819740409,0.5,3.979356149754384,298.15
462.10411530737423,0.5,3.9785604075344008,298.15
462.1124486407076,0.5,3.977750228416758,298.15
462.1207819740409,0.5,3.976931223337683,298.15
462.1291153073742,0.5,3.9761155232316616,298.15
462.13744864070753,0.5,3.9753142471024727,298.15
462.1457819740409,0.5,3.974540789940578,298.15
462.15411530737424,0.5,3.973801986045027,298.15
462.1624486407076,0.5,3.973092423737468,298.15
462.1707819740409,0.5,3.972401891887484,298.15
462.1791153073742,0.5,3.97171357531065,298.15
462.18744864070754,0.5,3.971007524178417,298.15
462.19578197404087,0.5,3.9702691748861927,298.15
462.2041153073742,0.5,3.9694982498637033,298.15
462.2124486407076,0.5,3.968704497979018,298.15
462.2207819740409,0.5,3.967897256990792,298.15
462.22911530737423,0.5,3.967088326906491,298.15
